Time,EMG_zyg,EMG_cor
0.0005,0.078735352,0.029907227
0.001,0.076904297,0.03692627
0.0015,0.094909668,0.048828125
0.002,0.099182129,0.055847168
0.0025,0.092773438,0.058898926
0.003,0.088806152,0.058898926
0.0035,0.086364746,0.060424805
0.004,0.081176758,0.058288574
0.0045,0.071411133,0.051269531
0.005,0.054626465,0.045471191
0.0055,0.037841797,0.037841797
0.006,0.018005371,0.028991699
0.0065,0.004272461,0.015869141
0.007,0.000915527,0.010070801
0.0075,0.001220703,0.008239746
0.008,-0.015258789,-0.002441406
0.0085,-0.028381348,-0.014038086
0.009,-0.038757324,-0.019836426
0.0095,-0.048828125,-0.025634766
0.01,-0.057373047,-0.029296875
0.0105,-0.065917969,-0.029602051
0.011,-0.073852539,-0.032958984
0.0115,-0.094299316,-0.046386719
0.012,-0.103759766,-0.055236816
0.0125,-0.101928711,-0.057373047
0.013,-0.092468262,-0.059509277
0.0135,-0.08972168,-0.057983398
0.014,-0.082092285,-0.055236816
0.0145,-0.072937012,-0.049438477
0.015,-0.063171387,-0.041503906
0.0155,-0.047302246,-0.034790039
0.016,-0.024719238,-0.025634766
0.0165,-0.01159668,-0.014038086
0.017,-0.006713867,-0.009765625
0.0175,-0.004882813,-0.005493164
0.018,0.01159668,0.004272461
0.0185,0.026245117,0.010070801
0.019,0.035095215,0.016784668
0.0195,0.045776367,0.024414063
0.02,0.054931641,0.033874512
0.0205,0.062561035,0.034179688
0.021,0.068054199,0.036621094
0.0215,0.087585449,0.050048828
0.022,0.098571777,0.059204102
0.0225,0.100708008,0.062255859
0.023,0.095214844,0.062561035
0.0235,0.088500977,0.061645508
0.024,0.083618164,0.061340332
0.0245,0.076599121,0.058288574
0.025,0.071105957,0.052185059
0.0255,0.054626465,0.043029785
0.026,0.035095215,0.034484863
0.0265,0.018615723,0.024719238
0.027,0.012207031,0.020446777
0.0275,0.008239746,0.019226074
0.028,-0.018310547,0.009460449
0.0285,-0.037841797,0
0.029,-0.047912598,-0.00579834
0.0295,-0.052490234,-0.009460449
0.03,-0.06652832,-0.017089844
0.0305,-0.077209473,-0.024414063
0.031,-0.081176758,-0.03112793
0.0315,-0.09765625,-0.043334961
0.032,-0.09979248,-0.052185059
0.0325,-0.094909668,-0.054626465
0.033,-0.087890625,-0.054016113
0.0335,-0.085144043,-0.053405762
0.034,-0.08026123,-0.051574707
0.0345,-0.070495605,-0.050964355
0.035,-0.062561035,-0.045471191
0.0355,-0.046691895,-0.037231445
0.036,-0.028686523,-0.028076172
0.0365,-0.011291504,-0.015869141
0.037,-0.001525879,-0.005493164
0.0375,0.004272461,-0.006408691
0.038,0.02166748,0.003662109
0.0385,0.031738281,0.010681152
0.039,0.03692627,0.018615723
0.0395,0.046081543,0.023498535
0.04,0.055236816,0.03326416
0.0405,0.057067871,0.043945313
0.041,0.062866211,0.051879883
0.0415,0.081176758,0.063171387
0.042,0.085449219,0.067443848
0.0425,0.084228516,0.064086914
0.043,0.077209473,0.055541992
0.0435,0.070495605,0.050964355
0.044,0.065917969,0.049438477
0.0445,0.055236816,0.049438477
0.045,0.045776367,0.047912598
0.0455,0.035400391,0.042724609
0.046,0.015869141,0.033569336
0.0465,-0.001831055,0.022888184
0.047,-0.00579834,0.012817383
0.0475,-0.003051758,0.009155273
0.048,-0.019226074,0.001525879
0.0485,-0.028686523,-0.011901855
0.049,-0.035400391,-0.016784668
0.0495,-0.047607422,-0.023803711
0.05,-0.057678223,-0.030822754
0.0505,-0.059814453,-0.036315918
0.051,-0.065307617,-0.045166016
0.0515,-0.087585449,-0.057373047
0.052,-0.097351074,-0.066223145
0.0525,-0.090026855,-0.065612793
0.053,-0.081176758,-0.065307617
0.0535,-0.075683594,-0.062255859
0.054,-0.072631836,-0.058898926
0.0545,-0.065612793,-0.051269531
0.055,-0.058898926,-0.046691895
0.0555,-0.044250488,-0.038146973
0.056,-0.021362305,-0.025024414
0.0565,-0.007629395,-0.01159668
0.057,-0.000610352,0.000915527
0.0575,-0.001220703,0.001220703
0.058,0.016174316,0.00579834
0.0585,0.027160645,0.011291504
0.059,0.025634766,0.009155273
0.0595,0.027160645,0.004882813
0.06,0.034790039,0.008544922
0.0605,0.040893555,0.017089844
0.061,0.045776367,0.024108887
0.0615,0.068664551,0.039672852
0.062,0.08392334,0.051574707
0.0625,0.089111328,0.057678223
0.063,0.085449219,0.059509277
0.0635,0.079040527,0.062561035
0.064,0.067749023,0.061645508
0.0645,0.06072998,0.057678223
0.065,0.054626465,0.053100586
0.0655,0.051574707,0.047607422
0.066,0.037536621,0.039978027
0.0665,0.02166748,0.02746582
0.067,0.013427734,0.018615723
0.0675,0.022583008,0.020141602
0.068,0.010375977,0.01739502
0.0685,-0.003662109,0.012207031
0.069,-0.010375977,0.008239746
0.0695,-0.010681152,0.003051758
0.07,-0.01953125,-0.006713867
0.0705,-0.029907227,-0.019836426
0.071,-0.038757324,-0.03326416
0.0715,-0.057983398,-0.041503906
0.072,-0.069580078,-0.050354004
0.0725,-0.071716309,-0.057983398
0.073,-0.065002441,-0.058288574
0.0735,-0.057983398,-0.054016113
0.074,-0.059509277,-0.05645752
0.0745,-0.061950684,-0.055236816
0.075,-0.06072998,-0.05279541
0.0755,-0.049743652,-0.049743652
0.076,-0.031738281,-0.039367676
0.0765,-0.01373291,-0.025939941
0.077,-0.00793457,-0.018310547
0.0775,-0.010681152,-0.020141602
0.078,0.010375977,-0.017700195
0.0785,0.027770996,-0.004272461
0.079,0.031738281,0.00213623
0.0795,0.036010742,0.001831055
0.08,0.04119873,0.00579834
0.0805,0.043029785,0.008239746
0.081,0.045166016,0.018615723
0.0815,0.059814453,0.040283203
0.082,0.068664551,0.050964355
0.0825,0.074157715,0.052185059
0.083,0.07232666,0.052490234
0.0835,0.070800781,0.054321289
0.084,0.071716309,0.054931641
0.0845,0.069580078,0.048828125
0.085,0.064086914,0.045776367
0.0855,0.059204102,0.04699707
0.086,0.047607422,0.040893555
0.0865,0.03692627,0.029296875
0.087,0.03112793,0.015258789
0.0875,0.033569336,0.012817383
0.088,0.022888184,0.004882813
0.0885,0.009155273,-0.003967285
0.089,0.001525879,-0.004272461
0.0895,-0.00793457,-0.004882813
0.09,-0.018005371,-0.01159668
0.0905,-0.023803711,-0.016479492
0.091,-0.038146973,-0.021362305
0.0915,-0.062255859,-0.038452148
0.092,-0.077514648,-0.05859375
0.0925,-0.082092285,-0.070800781
0.093,-0.082702637,-0.074768066
0.0935,-0.07598877,-0.074157715
0.094,-0.07019043,-0.073242188
0.0945,-0.064697266,-0.062866211
0.095,-0.060119629,-0.048522949
0.0955,-0.054016113,-0.041809082
0.096,-0.038146973,-0.028991699
0.0965,-0.021057129,-0.014953613
0.097,-0.009155273,-0.00793457
0.0975,-0.015258789,-0.012817383
0.098,-0.003967285,-0.008544922
0.0985,0.011901855,-0.000915527
0.099,0.014038086,-0.000610352
0.0995,0.012207031,-0.000915527
0.1,0.014648438,0.004272461
0.1005,0.018005371,0.005187988
0.101,0.022888184,0.00579834
0.1015,0.043640137,0.014953613
0.102,0.055236816,0.022583008
0.1025,0.055847168,0.028076172
0.103,0.051574707,0.033569336
0.1035,0.052185059,0.038452148
0.104,0.055847168,0.046386719
0.1045,0.061035156,0.049438477
0.105,0.063171387,0.043029785
0.1055,0.062866211,0.046386719
0.106,0.056152344,0.044250488
0.1065,0.039367676,0.036621094
0.107,0.030212402,0.031738281
0.1075,0.036315918,0.046386719
0.108,0.016784668,0.045776367
0.1085,0.001220703,0.036010742
0.109,-0.003662109,0.030822754
0.1095,-0.002441406,0.027770996
0.11,-0.007629395,0.020751953
0.1105,-0.014648438,0.020446777
0.111,-0.023498535,0.009155273
0.1115,-0.04699707,-0.00793457
0.112,-0.066223145,-0.022888184
0.1125,-0.075683594,-0.033569336
0.113,-0.072937012,-0.040283203
0.1135,-0.062866211,-0.043029785
0.114,-0.065307617,-0.055236816
0.1145,-0.06439209,-0.059204102
0.115,-0.06652832,-0.067749023
0.1155,-0.069885254,-0.080871582
0.116,-0.063476563,-0.087585449
0.1165,-0.043945313,-0.07019043
0.117,-0.029602051,-0.055847168
0.1175,-0.036315918,-0.059509277
0.118,-0.020141602,-0.060424805
0.1185,-0.001525879,-0.050048828
0.119,0.006713867,-0.036315918
0.1195,0.009460449,-0.029296875
0.12,0.021362305,-0.021057129
0.1205,0.028381348,-0.018920898
0.121,0.032348633,-0.014648438
0.1215,0.049133301,-0.006103516
0.122,0.055847168,0.005493164
0.1225,0.053405762,0.012207031
0.123,0.047912598,0.016174316
0.1235,0.042724609,0.017089844
0.124,0.045776367,0.028381348
0.1245,0.045471191,0.0390625
0.125,0.04699707,0.04699707
0.1255,0.062866211,0.061645508
0.126,0.068969727,0.072937012
0.1265,0.057067871,0.067749023
0.127,0.052185059,0.060424805
0.1275,0.085449219,0.073242188
0.128,0.08392334,0.082397461
0.1285,0.062866211,0.069580078
0.129,0.062255859,0.06439209
0.1295,0.064086914,0.069885254
0.13,0.05645752,0.063476563
0.1305,0.054321289,0.060119629
0.131,0.038757324,0.048828125
0.1315,0.011291504,0.026550293
0.132,-0.012817383,0.003967285
0.1325,-0.024108887,-0.009765625
0.133,-0.027160645,-0.021057129
0.1335,-0.027770996,-0.026855469
0.134,-0.041503906,-0.035705566
0.1345,-0.046081543,-0.04119873
0.135,-0.049743652,-0.047302246
0.1355,-0.072021484,-0.060119629
0.136,-0.078125,-0.069885254
0.1365,-0.057678223,-0.065002441
0.137,-0.047912598,-0.059509277
0.1375,-0.084533691,-0.077209473
0.138,-0.091247559,-0.089416504
0.1385,-0.077819824,-0.084228516
0.139,-0.081481934,-0.082397461
0.1395,-0.087585449,-0.087890625
0.14,-0.081481934,-0.087890625
0.1405,-0.079650879,-0.086364746
0.141,-0.066833496,-0.07598877
0.1415,-0.040283203,-0.054626465
0.142,-0.016479492,-0.032348633
0.1425,0.00213623,-0.013427734
0.143,0.010986328,-0.000915527
0.1435,0.018005371,0.005187988
0.144,0.038146973,0.016479492
0.1445,0.054321289,0.028686523
0.145,0.071105957,0.039367676
0.1455,0.101928711,0.062866211
0.146,0.118713379,0.085754395
0.1465,0.112609863,0.084533691
0.147,0.107727051,0.079956055
0.1475,0.147705078,0.101318359
0.148,0.158081055,0.113220215
0.1485,0.137939453,0.09765625
0.149,0.127868652,0.09765625
0.1495,0.119628906,0.094299316
0.15,0.100097656,0.08972168
0.1505,0.087585449,0.077209473
0.151,0.065917969,0.068054199
0.1515,0.032958984,0.049438477
0.152,0.003662109,0.028991699
0.1525,-0.01159668,0.014953613
0.153,-0.022277832,0.007019043
0.1535,-0.027160645,0.000305176
0.154,-0.048828125,-0.016479492
0.1545,-0.061340332,-0.028381348
0.155,-0.076599121,-0.036010742
0.1555,-0.107727051,-0.061950684
0.156,-0.123596191,-0.088195801
0.1565,-0.112304688,-0.09185791
0.157,-0.104370117,-0.084838867
0.1575,-0.140686035,-0.101623535
0.158,-0.149230957,-0.116882324
0.1585,-0.127258301,-0.108642578
0.159,-0.120544434,-0.100402832
0.1595,-0.113525391,-0.09765625
0.16,-0.089416504,-0.08605957
0.1605,-0.078430176,-0.077819824
0.161,-0.06072998,-0.064086914
0.1615,-0.028991699,-0.046386719
0.162,0.001220703,-0.024108887
0.1625,0.024108887,-0.010070801
0.163,0.044555664,-0.003967285
0.1635,0.057067871,0
0.164,0.077819824,0.007019043
0.1645,0.08972168,0.017700195
0.165,0.101013184,0.025634766
0.1655,0.120849609,0.035095215
0.166,0.129089355,0.050354004
0.1665,0.109558105,0.054016113
0.167,0.098266602,0.049438477
0.1675,0.134887695,0.071105957
0.168,0.145263672,0.101928711
0.1685,0.124206543,0.108337402
0.169,0.116577148,0.110473633
0.1695,0.118408203,0.112609863
0.17,0.101928711,0.111083984
0.1705,0.08605957,0.101623535
0.171,0.062866211,0.090332031
0.1715,0.035400391,0.070800781
0.172,0.010375977,0.046386719
0.1725,-0.008850098,0.02746582
0.173,-0.016479492,0.012817383
0.1735,-0.019226074,0.006408691
0.174,-0.040283203,-0.012207031
0.1745,-0.05065918,-0.026245117
0.175,-0.065307617,-0.038757324
0.1755,-0.09979248,-0.063781738
0.176,-0.120239258,-0.083618164
0.1765,-0.106506348,-0.084533691
0.177,-0.093994141,-0.083312988
0.1775,-0.126342773,-0.103149414
0.178,-0.143737793,-0.122375488
0.1785,-0.12512207,-0.114135742
0.179,-0.11932373,-0.111999512
0.1795,-0.121765137,-0.112609863
0.18,-0.104370117,-0.106811523
0.1805,-0.090026855,-0.097351074
0.181,-0.069580078,-0.087280273
0.1815,-0.04486084,-0.067138672
0.182,-0.015869141,-0.043945313
0.1825,0.001525879,-0.02532959
0.183,0.011291504,-0.01373291
0.1835,0.014648438,-0.00793457
0.184,0.0390625,0.004882813
0.1845,0.059509277,0.01953125
0.185,0.083007813,0.03326416
0.1855,0.117492676,0.056152344
0.186,0.139465332,0.077209473
0.1865,0.131225586,0.079345703
0.187,0.124206543,0.075378418
0.1875,0.163269043,0.093078613
0.188,0.176391602,0.116577148
0.1885,0.15625,0.111083984
0.189,0.148010254,0.104064941
0.1895,0.147094727,0.101013184
0.19,0.133056641,0.094604492
0.1905,0.113220215,0.084838867
0.191,0.090026855,0.072631836
0.1915,0.057983398,0.055541992
0.192,0.023193359,0.035400391
0.1925,0,0.023498535
0.193,-0.009460449,0.014953613
0.1935,-0.020446777,0.004882813
0.194,-0.043029785,-0.013427734
0.1945,-0.059814453,-0.027160645
0.195,-0.076293945,-0.037841797
0.1955,-0.098571777,-0.060119629
0.196,-0.115966797,-0.079040527
0.1965,-0.101013184,-0.077209473
0.197,-0.090637207,-0.070800781
0.1975,-0.125732422,-0.091247559
0.198,-0.140075684,-0.115966797
0.1985,-0.123596191,-0.117797852
0.199,-0.122375488,-0.121154785
0.1995,-0.127258301,-0.12512207
0.2,-0.119934082,-0.117797852
0.2005,-0.111083984,-0.114440918
0.201,-0.091247559,-0.101318359
0.2015,-0.066223145,-0.070495605
0.202,-0.041809082,-0.042114258
0.2025,-0.021362305,-0.021057129
0.203,-0.009765625,-0.006408691
0.2035,-0.001220703,-0.003356934
0.204,0.01953125,0.00579834
0.2045,0.039367676,0.022583008
0.205,0.057373047,0.035095215
0.2055,0.087585449,0.05859375
0.206,0.108337402,0.084838867
0.2065,0.097351074,0.084533691
0.207,0.084533691,0.081787109
0.2075,0.115966797,0.102844238
0.208,0.128479004,0.124511719
0.2085,0.11138916,0.113525391
0.209,0.112304688,0.113220215
0.2095,0.115661621,0.117492676
0.21,0.100402832,0.116577148
0.2105,0.088806152,0.108642578
0.211,0.074768066,0.097045898
0.2115,0.050048828,0.075073242
0.212,0.02746582,0.046386719
0.2125,0.014648438,0.018310547
0.213,0.001831055,0.000305176
0.2135,-0.010681152,-0.008850098
0.214,-0.035095215,-0.021972656
0.2145,-0.05065918,-0.033569336
0.215,-0.065307617,-0.043640137
0.2155,-0.09765625,-0.061950684
0.216,-0.11932373,-0.082702637
0.2165,-0.11138916,-0.08605957
0.217,-0.105895996,-0.079650879
0.2175,-0.141906738,-0.095825195
0.218,-0.152893066,-0.11932373
0.2185,-0.131835938,-0.113220215
0.219,-0.125732422,-0.111694336
0.2195,-0.12878418,-0.110778809
0.22,-0.120544434,-0.102539063
0.2205,-0.112609863,-0.094299316
0.221,-0.093994141,-0.085754395
0.2215,-0.061645508,-0.068054199
0.222,-0.029602051,-0.04699707
0.2225,-0.008239746,-0.029602051
0.223,0.005187988,-0.020141602
0.2235,0.011901855,-0.012817383
0.224,0.031433105,0.001220703
0.2245,0.05645752,0.016479492
0.225,0.078430176,0.031433105
0.2255,0.104980469,0.056152344
0.226,0.125732422,0.079956055
0.2265,0.110168457,0.079345703
0.227,0.09765625,0.074157715
0.2275,0.128173828,0.090637207
0.228,0.144042969,0.11138916
0.2285,0.121765137,0.106201172
0.229,0.116882324,0.105895996
0.2295,0.12298584,0.108032227
0.23,0.111999512,0.104370117
0.2305,0.097351074,0.098876953
0.231,0.079345703,0.086975098
0.2315,0.049438477,0.06652832
0.232,0.018615723,0.039978027
0.2325,-0.001831055,0.020141602
0.233,-0.014343262,0.007324219
0.2335,-0.028381348,-0.004272461
0.234,-0.052490234,-0.02166748
0.2345,-0.072021484,-0.032653809
0.235,-0.086364746,-0.043640137
0.2355,-0.112304688,-0.06439209
0.236,-0.126647949,-0.084533691
0.2365,-0.111083984,-0.08392334
0.237,-0.096435547,-0.077514648
0.2375,-0.124206543,-0.097351074
0.238,-0.143737793,-0.119628906
0.2385,-0.121154785,-0.115356445
0.239,-0.112304688,-0.112304688
0.2395,-0.110778809,-0.112304688
0.24,-0.097961426,-0.104675293
0.2405,-0.086669922,-0.093078613
0.241,-0.071105957,-0.083618164
0.2415,-0.044555664,-0.065307617
0.242,-0.023193359,-0.041809082
0.2425,-0.006408691,-0.017700195
0.243,0.00213623,-0.005187988
0.2435,0.009155273,0.004577637
0.244,0.027160645,0.015563965
0.2445,0.045166016,0.032958984
0.245,0.060119629,0.048828125
0.2455,0.083618164,0.068969727
0.246,0.104370117,0.086975098
0.2465,0.090332031,0.08605957
0.247,0.079040527,0.08026123
0.2475,0.113830566,0.09765625
0.248,0.136108398,0.11932373
0.2485,0.117797852,0.112304688
0.249,0.116882324,0.109558105
0.2495,0.121765137,0.112304688
0.25,0.113830566,0.109558105
0.2505,0.103149414,0.099487305
0.251,0.090332031,0.090332031
0.2515,0.065917969,0.07598877
0.252,0.040283203,0.052490234
0.2525,0.016479492,0.033569336
0.253,0.002746582,0.021972656
0.2535,-0.011901855,0.012817383
0.254,-0.041809082,-0.004577637
0.2545,-0.055541992,-0.019226074
0.255,-0.071411133,-0.034179688
0.2555,-0.102539063,-0.05645752
0.256,-0.120544434,-0.079040527
0.2565,-0.108642578,-0.079650879
0.257,-0.095214844,-0.073547363
0.2575,-0.121154785,-0.086975098
0.258,-0.13885498,-0.109558105
0.2585,-0.122680664,-0.101928711
0.259,-0.122375488,-0.097351074
0.2595,-0.127258301,-0.099487305
0.26,-0.119934082,-0.097045898
0.2605,-0.114440918,-0.089111328
0.261,-0.104064941,-0.081787109
0.2615,-0.075683594,-0.064697266
0.262,-0.041503906,-0.042114258
0.2625,-0.015563965,-0.020751953
0.263,-0.003356934,-0.006103516
0.2635,0.003356934,-0.001831055
0.264,0.01739502,0.009765625
0.2645,0.034790039,0.02532959
0.265,0.058898926,0.042114258
0.2655,0.096435547,0.06439209
0.266,0.129089355,0.087585449
0.2665,0.120544434,0.088500977
0.267,0.109558105,0.082702637
0.2675,0.142211914,0.096740723
0.268,0.160522461,0.12298584
0.2685,0.133972168,0.116882324
0.269,0.126953125,0.113525391
0.2695,0.131225586,0.11505127
0.27,0.116882324,0.108947754
0.2705,0.100097656,0.09765625
0.271,0.08026123,0.088806152
0.2715,0.051574707,0.071411133
0.272,0.018310547,0.050964355
0.2725,-0.003051758,0.030212402
0.273,-0.015258789,0.018615723
0.2735,-0.026855469,0.008544922
0.274,-0.050964355,-0.005493164
0.2745,-0.069274902,-0.020141602
0.275,-0.084533691,-0.032653809
0.2755,-0.111999512,-0.048828125
0.276,-0.132446289,-0.071716309
0.2765,-0.11932373,-0.073852539
0.277,-0.102844238,-0.068664551
0.2775,-0.128173828,-0.080566406
0.278,-0.148010254,-0.102539063
0.2785,-0.129699707,-0.098876953
0.279,-0.12298584,-0.094604492
0.2795,-0.122375488,-0.097045898
0.28,-0.108947754,-0.094299316
0.2805,-0.097045898,-0.087280273
0.281,-0.080566406,-0.080566406
0.2815,-0.053100586,-0.064697266
0.282,-0.02532959,-0.039672852
0.2825,-0.003967285,-0.019226074
0.283,0.007324219,-0.003356934
0.2835,0.014038086,0.007019043
0.284,0.025024414,0.016784668
0.2845,0.044555664,0.030212402
0.285,0.066223145,0.04699707
0.2855,0.095825195,0.06652832
0.286,0.117492676,0.085449219
0.2865,0.104980469,0.087280273
0.287,0.092773438,0.082702637
0.2875,0.120849609,0.096740723
0.288,0.143432617,0.120239258
0.2885,0.123291016,0.118103027
0.289,0.11932373,0.116271973
0.2895,0.119934082,0.122070313
0.29,0.104980469,0.123291016
0.2905,0.091247559,0.113830566
0.291,0.075378418,0.100708008
0.2915,0.051269531,0.082092285
0.292,0.02166748,0.061950684
0.2925,0.000915527,0.039367676
0.293,-0.009765625,0.024414063
0.2935,-0.020751953,0.012512207
0.294,-0.039672852,-0.000305176
0.2945,-0.053100586,-0.016784668
0.295,-0.068359375,-0.030517578
0.2955,-0.097045898,-0.048217773
0.296,-0.118103027,-0.069274902
0.2965,-0.104980469,-0.071105957
0.297,-0.092163086,-0.06439209
0.2975,-0.118713379,-0.075683594
0.298,-0.140686035,-0.100097656
0.2985,-0.119628906,-0.093688965
0.299,-0.112609863,-0.087890625
0.2995,-0.113525391,-0.090637207
0.3,-0.101013184,-0.090637207
0.3005,-0.092468262,-0.084228516
0.301,-0.077819824,-0.080566406
0.3015,-0.056762695,-0.059814453
0.302,-0.031433105,-0.046386719
0.3025,-0.000305176,-0.02166748
0.303,0.007629395,-0.004882813
0.3035,0.006408691,0.005187988
0.304,0.025634766,0.018310547
0.3045,0.048217773,0.035095215
0.305,0.066223145,0.053710938
0.3055,0.096130371,0.073547363
0.306,0.11932373,0.09765625
0.3065,0.108947754,0.101623535
0.307,0.095825195,0.094604492
0.3075,0.122680664,0.104064941
0.308,0.149536133,0.126647949
0.3085,0.126953125,0.119934082
0.309,0.116271973,0.116882324
0.3095,0.117797852,0.117797852
0.31,0.110473633,0.116577148
0.3105,0.102844238,0.107727051
0.311,0.094909668,0.100402832
0.3115,0.072631836,0.081787109
0.312,0.044555664,0.05859375
0.3125,0.017700195,0.0390625
0.313,0.00793457,0.027160645
0.3135,-0.000915527,0.013427734
0.314,-0.018920898,0.001220703
0.3145,-0.0390625,-0.015869141
0.315,-0.062561035,-0.028686523
0.3155,-0.095825195,-0.047912598
0.316,-0.122680664,-0.072021484
0.3165,-0.111083984,-0.077514648
0.317,-0.096740723,-0.069274902
0.3175,-0.120544434,-0.082397461
0.318,-0.143127441,-0.105895996
0.3185,-0.12298584,-0.102844238
0.319,-0.117492676,-0.096740723
0.3195,-0.116882324,-0.098876953
0.32,-0.10345459,-0.093688965
0.3205,-0.089111328,-0.085449219
0.321,-0.076904297,-0.077514648
0.3215,-0.053405762,-0.059814453
0.322,-0.02166748,-0.036621094
0.3225,-0.000610352,-0.019226074
0.323,0.010986328,-0.00579834
0.3235,0.021362305,0.002746582
0.324,0.038452148,0.012817383
0.3245,0.057983398,0.026245117
0.325,0.072937012,0.043640137
0.3255,0.102233887,0.064697266
0.326,0.12298584,0.086669922
0.3265,0.106811523,0.087585449
0.327,0.09185791,0.08392334
0.3275,0.1171875,0.09552002
0.328,0.145568848,0.121154785
0.3285,0.127258301,0.118408203
0.329,0.119934082,0.111083984
0.3295,0.123596191,0.110778809
0.33,0.117492676,0.107421875
0.3305,0.106811523,0.098266602
0.331,0.092163086,0.091552734
0.3315,0.067138672,0.076599121
0.332,0.040893555,0.055541992
0.3325,0.020141602,0.036621094
0.333,0.009460449,0.023803711
0.3335,-0.004272461,0.01373291
0.334,-0.030517578,0.000305176
0.3345,-0.051269531,-0.016479492
0.335,-0.065612793,-0.029296875
0.3355,-0.092163086,-0.05065918
0.336,-0.116271973,-0.074768066
0.3365,-0.105285645,-0.078125
0.337,-0.088806152,-0.071411133
0.3375,-0.113525391,-0.085144043
0.338,-0.144348145,-0.114746094
0.3385,-0.127258301,-0.114440918
0.339,-0.121765137,-0.110473633
0.3395,-0.123291016,-0.10925293
0.34,-0.112304688,-0.101013184
0.3405,-0.098571777,-0.089111328
0.341,-0.083312988,-0.085144043
0.3415,-0.056152344,-0.069580078
0.342,-0.024719238,-0.046691895
0.3425,0.002746582,-0.024108887
0.343,0.015869141,-0.008544922
0.3435,0.026245117,0.003051758
0.344,0.042114258,0.017089844
0.3445,0.063476563,0.034484863
0.345,0.079650879,0.047302246
0.3455,0.108642578,0.068054199
0.346,0.12512207,0.087890625
0.3465,0.107421875,0.08972168
0.347,0.091247559,0.086669922
0.3475,0.113220215,0.093383789
0.348,0.140380859,0.117492676
0.3485,0.120544434,0.116271973
0.349,0.11138916,0.111999512
0.3495,0.11505127,0.11505127
0.35,0.110168457,0.114746094
0.3505,0.099182129,0.104675293
0.351,0.08392334,0.098571777
0.3515,0.060119629,0.081481934
0.352,0.032653809,0.05859375
0.3525,0.010986328,0.038452148
0.353,-0.003356934,0.02532959
0.3535,-0.017700195,0.014343262
0.354,-0.036315918,0.001831055
0.3545,-0.057067871,-0.015563965
0.355,-0.072021484,-0.02746582
0.3555,-0.099182129,-0.048217773
0.356,-0.124816895,-0.072021484
0.3565,-0.112915039,-0.079956055
0.357,-0.097351074,-0.074768066
0.3575,-0.118103027,-0.083312988
0.358,-0.142211914,-0.110168457
0.3585,-0.121765137,-0.107421875
0.359,-0.111694336,-0.105895996
0.3595,-0.111694336,-0.108032227
0.36,-0.100097656,-0.106201172
0.3605,-0.086364746,-0.09765625
0.361,-0.072937012,-0.088195801
0.3615,-0.045776367,-0.070800781
0.362,-0.016174316,-0.04486084
0.3625,0.005187988,-0.020751953
0.363,0.020141602,-0.002441406
0.3635,0.024719238,0.008850098
0.364,0.03692627,0.018615723
0.3645,0.057373047,0.032653809
0.365,0.076904297,0.045166016
0.3655,0.102844238,0.062866211
0.366,0.121459961,0.081176758
0.3665,0.112304688,0.079956055
0.367,0.100708008,0.076904297
0.3675,0.125427246,0.088500977
0.368,0.154724121,0.116577148
0.3685,0.133056641,0.114135742
0.369,0.121765137,0.110168457
0.3695,0.123596191,0.11505127
0.37,0.115966797,0.113525391
0.3705,0.105285645,0.103149414
0.371,0.090942383,0.093383789
0.3715,0.065307617,0.074768066
0.372,0.031738281,0.047607422
0.3725,0.003356934,0.027160645
0.373,-0.011291504,0.014648438
0.3735,-0.024108887,0.004882813
0.374,-0.044250488,-0.004577637
0.3745,-0.063781738,-0.020446777
0.375,-0.076293945,-0.037231445
0.3755,-0.102539063,-0.065307617
0.376,-0.126953125,-0.098571777
0.3765,-0.115966797,-0.107421875
0.377,-0.09552002,-0.093383789
0.3775,-0.113220215,-0.095825195
0.378,-0.139160156,-0.116577148
0.3785,-0.119628906,-0.111083984
0.379,-0.108642578,-0.102233887
0.3795,-0.11138916,-0.096740723
0.38,-0.102539063,-0.091552734
0.3805,-0.081481934,-0.08026123
0.381,-0.069274902,-0.075073242
0.3815,-0.041809082,-0.059204102
0.382,-0.010986328,-0.036010742
0.3825,0.012817383,-0.015563965
0.383,0.024414063,-0.001525879
0.3835,0.030822754,0.006408691
0.384,0.041809082,0.01739502
0.3845,0.05645752,0.030517578
0.385,0.071105957,0.041503906
0.3855,0.09765625,0.061035156
0.386,0.121765137,0.08392334
0.3865,0.111083984,0.087280273
0.387,0.096740723,0.085144043
0.3875,0.118408203,0.096130371
0.388,0.147399902,0.124511719
0.3885,0.127563477,0.118103027
0.389,0.119628906,0.113525391
0.3895,0.121154785,0.114440918
0.39,0.113220215,0.110473633
0.3905,0.099487305,0.097045898
0.391,0.085754395,0.085754395
0.3915,0.061340332,0.07232666
0.392,0.029602051,0.047607422
0.3925,0.000915527,0.025024414
0.393,-0.014038086,0.012817383
0.3935,-0.024108887,0.002746582
0.394,-0.039367676,-0.006713867
0.3945,-0.054016113,-0.021057129
0.395,-0.069274902,-0.033569336
0.3955,-0.096130371,-0.053710938
0.396,-0.118408203,-0.075683594
0.3965,-0.110168457,-0.081176758
0.397,-0.096740723,-0.075683594
0.3975,-0.113220215,-0.084838867
0.398,-0.143737793,-0.109558105
0.3985,-0.121154785,-0.108947754
0.399,-0.107421875,-0.104064941
0.3995,-0.108642578,-0.101928711
0.4,-0.100402832,-0.09765625
0.4005,-0.084228516,-0.086669922
0.401,-0.072631836,-0.080566406
0.4015,-0.048828125,-0.066833496
0.402,-0.01739502,-0.045471191
0.4025,0.001220703,-0.030517578
0.403,0.009155273,-0.01953125
0.4035,0.018920898,-0.010375977
0.404,0.032653809,-0.003662109
0.4045,0.05279541,0.008239746
0.405,0.068664551,0.025634766
0.4055,0.093994141,0.046386719
0.406,0.112609863,0.073242188
0.4065,0.100708008,0.08026123
0.407,0.084838867,0.073242188
0.4075,0.101013184,0.082702637
0.408,0.133361816,0.113220215
0.4085,0.111999512,0.112304688
0.409,0.104064941,0.104980469
0.4095,0.110168457,0.101013184
0.41,0.111083984,0.101928711
0.4105,0.101928711,0.094299316
0.411,0.086364746,0.084838867
0.4115,0.063476563,0.065307617
0.412,0.032958984,0.04119873
0.4125,0.00793457,0.02532959
0.413,-0.004272461,0.014953613
0.4135,-0.014648438,0.007629395
0.414,-0.030212402,-0.000305176
0.4145,-0.048828125,-0.01739502
0.415,-0.059509277,-0.032653809
0.4155,-0.08392334,-0.053710938
0.416,-0.108642578,-0.079345703
0.4165,-0.104980469,-0.083312988
0.417,-0.092468262,-0.078430176
0.4175,-0.112915039,-0.088195801
0.418,-0.143737793,-0.118103027
0.4185,-0.123901367,-0.120239258
0.419,-0.113830566,-0.117797852
0.4195,-0.117492676,-0.11932373
0.42,-0.109863281,-0.1171875
0.4205,-0.092468262,-0.108642578
0.421,-0.074768066,-0.104980469
0.4215,-0.049743652,-0.086669922
0.422,-0.018310547,-0.059509277
0.4225,0.006408691,-0.0390625
0.423,0.020446777,-0.02532959
0.4235,0.027770996,-0.015869141
0.424,0.030822754,-0.005187988
0.4245,0.046691895,0.01159668
0.425,0.062561035,0.029602051
0.4255,0.088500977,0.053710938
0.426,0.114746094,0.080871582
0.4265,0.10559082,0.085754395
0.427,0.087890625,0.084838867
0.4275,0.103149414,0.087890625
0.428,0.136108398,0.111999512
0.4285,0.11505127,0.108947754
0.429,0.106201172,0.100402832
0.4295,0.1171875,0.104064941
0.43,0.116271973,0.101623535
0.4305,0.10559082,0.092773438
0.431,0.094604492,0.086669922
0.4315,0.072021484,0.072631836
0.432,0.036010742,0.048217773
0.4325,0.006408691,0.027770996
0.433,-0.008239746,0.013122559
0.4335,-0.019836426,-0.000915527
0.434,-0.036010742,-0.012207031
0.4345,-0.050964355,-0.029907227
0.435,-0.06652832,-0.043640137
0.4355,-0.090637207,-0.063171387
0.436,-0.114440918,-0.085754395
0.4365,-0.109558105,-0.094604492
0.437,-0.093688965,-0.087890625
0.4375,-0.107421875,-0.093688965
0.438,-0.142822266,-0.122070313
0.4385,-0.128479004,-0.119934082
0.439,-0.110778809,-0.113830566
0.4395,-0.108337402,-0.114135742
0.44,-0.100402832,-0.111999512
0.4405,-0.081481934,-0.106506348
0.441,-0.065612793,-0.097961426
0.4415,-0.037231445,-0.081481934
0.442,-0.001525879,-0.057373047
0.4425,0.021362305,-0.038452148
0.443,0.043334961,-0.023193359
0.4435,0.057678223,-0.011291504
0.444,0.064697266,-0.003356934
0.4445,0.072937012,0.010681152
0.445,0.082702637,0.02746582
0.4455,0.097961426,0.048522949
0.446,0.116271973,0.071411133
0.4465,0.104370117,0.080566406
0.447,0.088806152,0.076904297
0.4475,0.10559082,0.082092285
0.448,0.142822266,0.111694336
0.4485,0.125427246,0.111999512
0.449,0.114440918,0.104675293
0.4495,0.114746094,0.104370117
0.45,0.107727051,0.101928711
0.4505,0.087890625,0.094299316
0.451,0.072021484,0.085754395
0.4515,0.04699707,0.071411133
0.452,0.014343262,0.047912598
0.4525,-0.007629395,0.027770996
0.453,-0.018615723,0.010681152
0.4535,-0.027770996,-0.004272461
0.454,-0.04119873,-0.014953613
0.4545,-0.051879883,-0.032043457
0.455,-0.062561035,-0.046081543
0.4555,-0.086975098,-0.063476563
0.456,-0.10925293,-0.089416504
0.4565,-0.100097656,-0.096130371
0.457,-0.079650879,-0.085449219
0.4575,-0.087280273,-0.090332031
0.458,-0.120544434,-0.118103027
0.4585,-0.09979248,-0.118103027
0.459,-0.090026855,-0.111694336
0.4595,-0.090332031,-0.109863281
0.46,-0.092468262,-0.107727051
0.4605,-0.087585449,-0.097961426
0.461,-0.085449219,-0.093078613
0.4615,-0.071105957,-0.079345703
0.462,-0.047607422,-0.054626465
0.4625,-0.030822754,-0.034484863
0.463,-0.022888184,-0.019836426
0.4635,-0.018310547,-0.006103516
0.464,-0.008239746,0.003967285
0.4645,0.008544922,0.023193359
0.465,0.025634766,0.040893555
0.4655,0.056762695,0.058288574
0.466,0.095214844,0.081176758
0.4665,0.098876953,0.087280273
0.467,0.097045898,0.083007813
0.4675,0.121154785,0.087585449
0.468,0.166320801,0.114135742
0.4685,0.150756836,0.113525391
0.469,0.136413574,0.107116699
0.4695,0.132141113,0.10925293
0.47,0.125427246,0.110473633
0.4705,0.11505127,0.102539063
0.471,0.108032227,0.096740723
0.4715,0.086364746,0.082702637
0.472,0.053405762,0.059509277
0.4725,0.031433105,0.034179688
0.473,0.01739502,0.01739502
0.4735,0.008544922,0.00213623
0.474,-0.003051758,-0.014038086
0.4745,-0.022277832,-0.032958984
0.475,-0.049438477,-0.04699707
0.4755,-0.081481934,-0.066223145
0.476,-0.115661621,-0.092468262
0.4765,-0.114440918,-0.102233887
0.477,-0.099182129,-0.093078613
0.4775,-0.115661621,-0.090637207
0.478,-0.155944824,-0.113525391
0.4785,-0.144958496,-0.11138916
0.479,-0.137939453,-0.100097656
0.4795,-0.141906738,-0.101928711
0.48,-0.133666992,-0.103149414
0.4805,-0.114135742,-0.094604492
0.481,-0.102233887,-0.089416504
0.4815,-0.078125,-0.072937012
0.482,-0.044250488,-0.050048828
0.4825,-0.016784668,-0.028991699
0.483,0.002441406,-0.010986328
0.4835,0.01159668,-0.002441406
0.484,0.025634766,0.004272461
0.4845,0.051879883,0.018615723
0.485,0.08026123,0.036621094
0.4855,0.112915039,0.061645508
0.486,0.146789551,0.087280273
0.4865,0.142822266,0.095825195
0.487,0.127258301,0.088806152
0.4875,0.131835938,0.09185791
0.488,0.154418945,0.118103027
0.4885,0.127563477,0.117492676
0.489,0.10925293,0.111694336
0.4895,0.102844238,0.110473633
0.49,0.092773438,0.109558105
0.4905,0.072021484,0.100097656
0.491,0.057373047,0.091247559
0.4915,0.033874512,0.076599121
0.492,0.006103516,0.056762695
0.4925,-0.017089844,0.035705566
0.493,-0.021972656,0.021057129
0.4935,-0.02532959,0.010681152
0.494,-0.03692627,-0.000610352
0.4945,-0.054016113,-0.016174316
0.495,-0.069885254,-0.03112793
0.4955,-0.096435547,-0.047302246
0.496,-0.129394531,-0.072631836
0.4965,-0.12878418,-0.083618164
0.497,-0.113220215,-0.073852539
0.4975,-0.124816895,-0.079040527
0.498,-0.165710449,-0.108947754
0.4985,-0.152893066,-0.111694336
0.499,-0.141296387,-0.100708008
0.4995,-0.141296387,-0.101013184
0.5,-0.133056641,-0.101928711
0.5005000000000001,-0.112915039,-0.093078613
0.501,-0.100708008,-0.086669922
0.5015000000000001,-0.073242188,-0.073547363
0.502,-0.023803711,-0.051574707
0.5025000000000001,0.017089844,-0.031433105
0.503,0.043029785,-0.012207031
0.5035000000000001,0.055847168,0
0.504,0.063171387,0.009765625
0.5045000000000001,0.067749023,0.024719238
0.505,0.075378418,0.040588379
0.5055000000000001,0.091552734,0.055541992
0.506,0.1171875,0.079650879
0.5065000000000001,0.115661621,0.088500977
0.507,0.104675293,0.085144043
0.5075000000000001,0.119628906,0.088500977
0.508,0.168151855,0.118408203
0.5085000000000001,0.161132813,0.120239258
0.509,0.148925781,0.111999512
0.5095000000000001,0.151062012,0.111694336
0.51,0.145263672,0.110778809
0.5105000000000001,0.123291016,0.102844238
0.511,0.101318359,0.093994141
0.5115000000000001,0.07019043,0.081176758
0.512,0.027160645,0.061950684
0.5125,-0.010681152,0.042419434
0.513,-0.034179688,0.028076172
0.5135,-0.045776367,0.012512207
0.514,-0.061340332,0.000610352
0.5145,-0.083007813,-0.018615723
0.515,-0.098876953,-0.034790039
0.5155,-0.118713379,-0.052490234
0.516,-0.133666992,-0.075073242
0.5165,-0.121154785,-0.085449219
0.517,-0.104064941,-0.076293945
0.5175,-0.110168457,-0.079040527
0.518,-0.137329102,-0.108947754
0.5185,-0.11505127,-0.110778809
0.519,-0.097045898,-0.106201172
0.5195,-0.091247559,-0.105895996
0.52,-0.089416504,-0.107727051
0.5205,-0.077209473,-0.098571777
0.521,-0.072937012,-0.092468262
0.5215,-0.056762695,-0.073852539
0.522,-0.027770996,-0.051269531
0.5225,-0.00579834,-0.030822754
0.523,0.008850098,-0.013427734
0.5235,0.01953125,-0.001220703
0.524,0.029907227,0.009765625
0.5245,0.047607422,0.025634766
0.525,0.063781738,0.040893555
0.5255,0.088500977,0.059509277
0.526,0.116882324,0.083007813
0.5265,0.118408203,0.093688965
0.527,0.107421875,0.087890625
0.5275,0.115966797,0.090026855
0.528,0.157165527,0.115966797
0.5285,0.145568848,0.1171875
0.529,0.137023926,0.110778809
0.5295,0.137329102,0.11138916
0.53,0.131530762,0.110778809
0.5305,0.113830566,0.101928711
0.531,0.096435547,0.094909668
0.5315,0.073547363,0.082397461
0.532,0.039367676,0.059814453
0.5325,0.007324219,0.038452148
0.533,-0.015869141,0.024108887
0.5335,-0.022888184,0.014953613
0.534,-0.034790039,0.004272461
0.5345,-0.058898926,-0.014953613
0.535,-0.072631836,-0.029602051
0.5355,-0.09552002,-0.04699707
0.536,-0.125732422,-0.07019043
0.5365,-0.124206543,-0.079650879
0.537,-0.10925293,-0.073547363
0.5375,-0.115966797,-0.077514648
0.538,-0.157775879,-0.103149414
0.5385,-0.152587891,-0.10925293
0.539,-0.144348145,-0.101623535
0.5395,-0.142211914,-0.101318359
0.54,-0.137634277,-0.101318359
0.5405,-0.119934082,-0.092468262
0.541,-0.108032227,-0.087585449
0.5415,-0.078125,-0.073547363
0.542,-0.035095215,-0.048828125
0.5425,0.005187988,-0.025939941
0.543,0.030212402,-0.008544922
0.5435,0.047607422,0.000915527
0.544,0.059509277,0.007629395
0.5445,0.079345703,0.021972656
0.545,0.096130371,0.038452148
0.5455,0.1171875,0.056762695
0.546,0.13885498,0.082397461
0.5465,0.129089355,0.091552734
0.547,0.108032227,0.082397461
0.5475,0.112609863,0.082397461
0.548,0.146179199,0.11138916
0.5485,0.13092041,0.1171875
0.549,0.123901367,0.11138916
0.5495,0.13092041,0.11138916
0.55,0.132446289,0.113830566
0.5505,0.119628906,0.106201172
0.551,0.105895996,0.099182129
0.5515,0.08026123,0.082702637
0.552,0.040893555,0.061035156
0.5525,0.004577637,0.039978027
0.553,-0.01739502,0.027160645
0.5535,-0.041809082,0.016174316
0.554,-0.067138672,0.004272461
0.5545,-0.096130371,-0.015258789
0.555,-0.110778809,-0.027770996
0.5555,-0.128479004,-0.041503906
0.556,-0.153503418,-0.067443848
0.5565,-0.145874023,-0.083618164
0.557,-0.112915039,-0.075378418
0.5575,-0.095214844,-0.074157715
0.558,-0.110778809,-0.101623535
0.5585,-0.083618164,-0.107421875
0.559,-0.060424805,-0.100708008
0.5595,-0.05859375,-0.101013184
0.56,-0.055236816,-0.104064941
0.5605,-0.050354004,-0.097045898
0.561,-0.059204102,-0.092468262
0.5615,-0.05645752,-0.076904297
0.562,-0.034790039,-0.050964355
0.5625,-0.025634766,-0.031738281
0.5630000000000001,-0.015869141,-0.014038086
0.5635,-0.004577637,-0.002746582
0.5640000000000001,0.014953613,0.005493164
0.5645,0.048522949,0.019836426
0.5650000000000001,0.069274902,0.037536621
0.5655,0.090637207,0.053405762
0.5660000000000001,0.113830566,0.078735352
0.5665,0.108642578,0.090942383
0.5670000000000001,0.084228516,0.084228516
0.5675,0.088806152,0.082702637
0.5680000000000001,0.133361816,0.11138916
0.5685,0.127258301,0.118713379
0.5690000000000001,0.121154785,0.112609863
0.5695,0.130310059,0.109863281
0.5700000000000001,0.129089355,0.110473633
0.5705,0.113220215,0.100708008
0.5710000000000001,0.10559082,0.093688965
0.5715,0.079040527,0.078430176
0.5720000000000001,0.043640137,0.057067871
0.5725,0.017700195,0.0390625
0.5730000000000001,-0.001525879,0.022583008
0.5735,-0.016479492,0.009155273
0.5740000000000001,-0.033569336,-0.002441406
0.5745,-0.050964355,-0.021057129
0.5750000000000001,-0.065002441,-0.032043457
0.5755,-0.088806152,-0.045471191
0.5760000000000001,-0.123596191,-0.068664551
0.5765,-0.133972168,-0.081787109
0.577,-0.127258301,-0.077209473
0.5775,-0.141601563,-0.078430176
0.578,-0.183410645,-0.106811523
0.5785,-0.177307129,-0.115661621
0.579,-0.168151855,-0.108337402
0.5795,-0.17364502,-0.108947754
0.58,-0.167236328,-0.108337402
0.5805,-0.140686035,-0.095825195
0.581,-0.115356445,-0.089416504
0.5815,-0.077209473,-0.07598877
0.582,-0.035400391,-0.051879883
0.5825,-0.012817383,-0.029907227
0.583,0.00213623,-0.014648438
0.5835,0.014343262,-0.005187988
0.584,0.029296875,0.003967285
0.5845,0.057983398,0.019226074
0.585,0.084838867,0.033874512
0.5855,0.115356445,0.053710938
0.586,0.148010254,0.076904297
0.5865,0.154418945,0.090026855
0.587,0.145568848,0.082702637
0.5875,0.152587891,0.079040527
0.588,0.188903809,0.104980469
0.5885,0.162963867,0.113220215
0.589,0.129699707,0.105895996
0.5895,0.115356445,0.105285645
0.59,0.11138916,0.107421875
0.5905,0.087585449,0.100097656
0.591,0.06652832,0.091552734
0.5915,0.0390625,0.075378418
0.592,-0.003662109,0.052490234
0.5925,-0.030212402,0.032043457
0.593,-0.040283203,0.021057129
0.5935,-0.046691895,0.010070801
0.594,-0.050964355,0.00213623
0.5945,-0.068054199,-0.012817383
0.595,-0.082397461,-0.027160645
0.5955,-0.093994141,-0.046386719
0.596,-0.109558105,-0.071411133
0.5965,-0.098266602,-0.084838867
0.597,-0.069274902,-0.082092285
0.5975,-0.061035156,-0.082397461
0.598,-0.10345459,-0.109558105
0.5985,-0.107116699,-0.119018555
0.599,-0.098571777,-0.11138916
0.5995,-0.100097656,-0.107727051
0.6,-0.10559082,-0.109863281
0.6005,-0.094604492,-0.097961426
0.601,-0.093688965,-0.090026855
0.6015,-0.079345703,-0.077819824
0.602,-0.049133301,-0.055847168
0.6025,-0.025024414,-0.036315918
0.603,-0.004577637,-0.018615723
0.6035,0.011901855,-0.004882813
0.604,0.030822754,0.007629395
0.6045,0.056762695,0.024414063
0.605,0.072937012,0.037841797
0.6055,0.080566406,0.05645752
0.606,0.097351074,0.074768066
0.6065,0.096130371,0.085449219
0.607,0.081787109,0.08026123
0.6075,0.09185791,0.080566406
0.608,0.150756836,0.109863281
0.6085,0.150146484,0.115356445
0.609,0.137023926,0.103759766
0.6095,0.137634277,0.100708008
0.61,0.12878418,0.100402832
0.6105,0.100402832,0.093688965
0.611,0.077819824,0.086975098
0.6115,0.053710938,0.074768066
0.612,0.022277832,0.053710938
0.6125,0.002746582,0.032958984
0.613,-0.001831055,0.020751953
0.6135,-0.010681152,0.007019043
0.614,-0.021362305,-0.003967285
0.6145,-0.045471191,-0.022888184
0.615,-0.068359375,-0.038757324
0.6155,-0.093383789,-0.054626465
0.616,-0.129394531,-0.078430176
0.6165,-0.141296387,-0.091247559
0.617,-0.131835938,-0.08605957
0.6175,-0.134277344,-0.084533691
0.618,-0.17364502,-0.109863281
0.6185,-0.166625977,-0.118103027
0.619,-0.149841309,-0.113220215
0.6195,-0.145263672,-0.11505127
0.62,-0.140380859,-0.115966797
0.6205,-0.112915039,-0.108642578
0.621,-0.097045898,-0.104370117
0.6215,-0.064697266,-0.088500977
0.622,-0.021057129,-0.068054199
0.6225,0.008239746,-0.047607422
0.623,0.022583008,-0.030517578
0.6235,0.025634766,-0.016784668
0.624,0.038452148,-0.006408691
0.6245,0.070495605,0.010070801
0.625,0.111083984,0.025634766
0.6255000000000001,0.147705078,0.042114258
0.626,0.180664063,0.068359375
0.6265000000000001,0.174560547,0.078430176
0.627,0.140075684,0.075073242
0.6275000000000001,0.11932373,0.075378418
0.628,0.140991211,0.100402832
0.6285000000000001,0.117797852,0.109863281
0.629,0.090637207,0.101623535
0.6295000000000001,0.085754395,0.100402832
0.63,0.077819824,0.102844238
0.6305000000000001,0.055236816,0.096435547
0.631,0.050354004,0.088806152
0.6315000000000001,0.03692627,0.076293945
0.632,0.012817383,0.057067871
0.6325000000000001,-0.004577637,0.033569336
0.633,-0.012207031,0.019226074
0.6335000000000001,-0.021362305,0.006408691
0.634,-0.038757324,-0.002746582
0.6345000000000001,-0.06652832,-0.017700195
0.635,-0.080566406,-0.032958984
0.6355000000000001,-0.100708008,-0.047912598
0.636,-0.127258301,-0.073852539
0.6365000000000001,-0.132446289,-0.090637207
0.637,-0.1171875,-0.083618164
0.6375000000000001,-0.118713379,-0.080566406
0.638,-0.157775879,-0.106811523
0.6385000000000001,-0.14831543,-0.113830566
0.639,-0.126342773,-0.109558105
0.6395000000000001,-0.120544434,-0.108032227
0.64,-0.113830566,-0.11138916
0.6405,-0.096130371,-0.101623535
0.641,-0.082092285,-0.097351074
0.6415,-0.05645752,-0.085449219
0.642,-0.015563965,-0.061340332
0.6425,0.010681152,-0.040588379
0.643,0.030212402,-0.025024414
0.6435,0.043334961,-0.012207031
0.644,0.048522949,-0.000610352
0.6445,0.065002441,0.013122559
0.645,0.083312988,0.026245117
0.6455,0.108642578,0.043029785
0.646,0.139160156,0.06652832
0.6465,0.137939453,0.079956055
0.647,0.1171875,0.075073242
0.6475,0.113830566,0.073852539
0.648,0.151062012,0.101318359
0.6485,0.139160156,0.10925293
0.649,0.112915039,0.102233887
0.6495,0.103149414,0.099182129
0.65,0.097045898,0.098571777
0.6505,0.075683594,0.092468262
0.651,0.059814453,0.085144043
0.6515,0.033874512,0.071716309
0.652,-0.003967285,0.049438477
0.6525,-0.022583008,0.026245117
0.653,-0.029907227,0.013122559
0.6535,-0.03112793,0.003662109
0.654,-0.029907227,-0.008239746
0.6545,-0.040893555,-0.02746582
0.655,-0.046691895,-0.041809082
0.6555,-0.059814453,-0.057678223
0.656,-0.084228516,-0.082397461
0.6565,-0.092163086,-0.097045898
0.657,-0.084228516,-0.090637207
0.6575,-0.091552734,-0.091552734
0.658,-0.140686035,-0.117492676
0.6585,-0.132751465,-0.128173828
0.659,-0.108947754,-0.116882324
0.6595,-0.098266602,-0.115356445
0.66,-0.092163086,-0.116271973
0.6605,-0.074462891,-0.107421875
0.661,-0.069885254,-0.101013184
0.6615,-0.050964355,-0.088806152
0.662,-0.025634766,-0.067138672
0.6625,-0.005493164,-0.047302246
0.663,0.014953613,-0.032653809
0.6635,0.01953125,-0.022277832
0.664,0.01953125,-0.016479492
0.6645,0.034484863,-0.000305176
0.665,0.052185059,0.015258789
0.6655,0.076599121,0.029907227
0.666,0.110778809,0.054321289
0.6665,0.120849609,0.066223145
0.667,0.099182129,0.060424805
0.6675,0.094299316,0.058898926
0.668,0.137939453,0.08392334
0.6685,0.141601563,0.096740723
0.669,0.139770508,0.09185791
0.6695,0.141296387,0.091247559
0.67,0.141601563,0.092163086
0.6705,0.11932373,0.086669922
0.671,0.100402832,0.083007813
0.6715,0.067443848,0.068969727
0.672,0.030517578,0.04699707
0.6725,0.009765625,0.024108887
0.673,0.006408691,0.010986328
0.6735,0.00213623,-0.001831055
0.674,-0.016479492,-0.014648438
0.6745,-0.049743652,-0.032653809
0.675,-0.079345703,-0.048522949
0.6755,-0.10925293,-0.064086914
0.676,-0.143432617,-0.088806152
0.6765,-0.15411377,-0.102844238
0.677,-0.138549805,-0.098876953
0.6775,-0.125732422,-0.094909668
0.678,-0.153808594,-0.118408203
0.6785,-0.14251709,-0.127563477
0.679,-0.117797852,-0.119934082
0.6795,-0.104064941,-0.118408203
0.68,-0.094299316,-0.118103027
0.6805,-0.071411133,-0.10925293
0.681,-0.05859375,-0.105285645
0.6815,-0.03692627,-0.093383789
0.682,-0.010986328,-0.07232666
0.6825,0.000915527,-0.054016113
0.683,0.010070801,-0.034484863
0.6835,0.010986328,-0.018005371
0.684,0.008544922,-0.013427734
0.6845,0.023498535,0.000610352
0.685,0.041809082,0.018005371
0.6855,0.064086914,0.039672852
0.686,0.095214844,0.065002441
0.6865,0.09765625,0.077819824
0.687,0.080566406,0.074462891
0.6875,0.080871582,0.072937012
0.6880000000000001,0.125732422,0.099182129
0.6885,0.122680664,0.110168457
0.6890000000000001,0.103149414,0.100708008
0.6895,0.099487305,0.100708008
0.6900000000000001,0.097351074,0.100402832
0.6905,0.081176758,0.093994141
0.6910000000000001,0.074157715,0.084533691
0.6915,0.061645508,0.067749023
0.6920000000000001,0.045776367,0.047912598
0.6925,0.040588379,0.02532959
0.6930000000000001,0.037536621,0.008239746
0.6935,0.037536621,-0.005187988
0.6940000000000001,0.029907227,-0.013427734
0.6945,0.005493164,-0.026245117
0.6950000000000001,-0.024414063,-0.043945313
0.6955,-0.057678223,-0.059814453
0.6960000000000001,-0.102844238,-0.082092285
0.6965,-0.11932373,-0.096130371
0.6970000000000001,-0.108642578,-0.090637207
0.6975,-0.102539063,-0.087585449
0.6980000000000001,-0.140686035,-0.11138916
0.6985,-0.140075684,-0.121459961
0.6990000000000001,-0.123291016,-0.117797852
0.6995,-0.121459961,-0.116882324
0.7000000000000001,-0.120239258,-0.117797852
0.7005,-0.106811523,-0.110778809
0.7010000000000001,-0.09765625,-0.104675293
0.7015,-0.079040527,-0.096435547
0.7020000000000001,-0.04486084,-0.081787109
0.7025,-0.008239746,-0.060424805
0.7030000000000001,0.025634766,-0.04119873
0.7035,0.052490234,-0.02532959
0.704,0.064697266,-0.012817383
0.7045,0.081481934,0.00579834
0.705,0.091247559,0.020446777
0.7055,0.098876953,0.037231445
0.706,0.115661621,0.063476563
0.7065,0.122680664,0.082397461
0.707,0.109558105,0.077209473
0.7075,0.110473633,0.075073242
0.708,0.15045166,0.097045898
0.7085,0.144958496,0.106506348
0.709,0.120849609,0.09765625
0.7095,0.116882324,0.096130371
0.71,0.115661621,0.098571777
0.7105,0.095214844,0.09552002
0.711,0.08026123,0.087890625
0.7115,0.059814453,0.07598877
0.712,0.030212402,0.057678223
0.7125,0.01159668,0.035705566
0.713,0.001220703,0.01953125
0.7135,-0.008239746,0.004882813
0.714,-0.012817383,-0.003356934
0.7145,-0.032348633,-0.021972656
0.715,-0.045166016,-0.033569336
0.7155,-0.061645508,-0.048828125
0.716,-0.095214844,-0.070495605
0.7165,-0.108947754,-0.08605957
0.717,-0.101013184,-0.087280273
0.7175,-0.101013184,-0.084533691
0.718,-0.137023926,-0.108947754
0.7185,-0.131530762,-0.125427246
0.719,-0.109863281,-0.119628906
0.7195,-0.109863281,-0.116882324
0.72,-0.1171875,-0.115661621
0.7205,-0.10559082,-0.10345459
0.721,-0.108947754,-0.098266602
0.7215,-0.104980469,-0.088806152
0.722,-0.078735352,-0.070800781
0.7225,-0.056152344,-0.053405762
0.723,-0.034790039,-0.038757324
0.7235,-0.015869141,-0.029296875
0.724,-0.006408691,-0.020751953
0.7245,0.017089844,-0.003662109
0.725,0.043029785,0.014343262
0.7255,0.074768066,0.03326416
0.726,0.108947754,0.05645752
0.7265,0.116271973,0.07019043
0.727,0.096130371,0.065612793
0.7275,0.086669922,0.061035156
0.728,0.127258301,0.086669922
0.7285,0.127563477,0.101623535
0.729,0.107116699,0.093688965
0.7295,0.106201172,0.093383789
0.73,0.111999512,0.09552002
0.7305,0.09765625,0.089416504
0.731,0.095214844,0.084838867
0.7315,0.085449219,0.074462891
0.732,0.067443848,0.053405762
0.7325,0.049133301,0.029907227
0.733,0.040893555,0.013122559
0.7335,0.033874512,-0.000305176
0.734,0.017700195,-0.011901855
0.7345,-0.016479492,-0.026855469
0.735,-0.044250488,-0.040588379
0.7355,-0.070800781,-0.057373047
0.736,-0.114440918,-0.079956055
0.7365,-0.132751465,-0.094299316
0.737,-0.126953125,-0.09185791
0.7375,-0.129394531,-0.087585449
0.738,-0.173339844,-0.107421875
0.7385,-0.179443359,-0.11932373
0.739,-0.160827637,-0.113525391
0.7395,-0.158996582,-0.113525391
0.74,-0.151977539,-0.113220215
0.7405,-0.131530762,-0.104980469
0.741,-0.112304688,-0.101928711
0.7415,-0.080871582,-0.094909668
0.742,-0.03112793,-0.075073242
0.7425,0.009155273,-0.050048828
0.743,0.040283203,-0.032958984
0.7435,0.062561035,-0.021362305
0.744,0.081176758,-0.011291504
0.7445,0.10925293,0.007629395
0.745,0.127868652,0.025634766
0.7455,0.137329102,0.043945313
0.746,0.152893066,0.067749023
0.7465,0.147094727,0.081787109
0.747,0.117492676,0.078430176
0.7475,0.103149414,0.074157715
0.748,0.140686035,0.09979248
0.7485,0.139160156,0.113220215
0.749,0.106506348,0.103149414
0.7495,0.090332031,0.101013184
0.75,0.076904297,0.102539063
0.7505000000000001,0.063781738,0.096740723
0.751,0.062866211,0.090332031
0.7515000000000001,0.054321289,0.078430176
0.752,0.028076172,0.062255859
0.7525000000000001,-0.004577637,0.04119873
0.753,-0.025939941,0.023193359
0.7535000000000001,-0.037231445,0.008239746
0.754,-0.04699707,-0.000915527
0.7545000000000001,-0.067138672,-0.020446777
0.755,-0.081787109,-0.031738281
0.7555000000000001,-0.096740723,-0.04699707
0.756,-0.12878418,-0.071716309
0.7565000000000001,-0.139770508,-0.090942383
0.757,-0.127868652,-0.08972168
0.7575000000000001,-0.120849609,-0.085754395
0.758,-0.155334473,-0.10559082
0.7585000000000001,-0.154418945,-0.1171875
0.759,-0.133666992,-0.106811523
0.7595000000000001,-0.130310059,-0.101623535
0.76,-0.127563477,-0.101928711
0.7605000000000001,-0.112304688,-0.095214844
0.761,-0.101013184,-0.088195801
0.7615000000000001,-0.074462891,-0.077209473
0.762,-0.037231445,-0.055236816
0.7625000000000001,-0.006103516,-0.032653809
0.763,0.010681152,-0.015258789
0.7635000000000001,0.018310547,-0.003051758
0.764,0.022277832,0.004272461
0.7645000000000001,0.045776367,0.015869141
0.765,0.066223145,0.030822754
0.7655000000000001,0.093688965,0.044555664
0.766,0.131835938,0.066223145
0.7665000000000001,0.146789551,0.082702637
0.767,0.13092041,0.080871582
0.7675000000000001,0.122680664,0.077514648
0.768,0.158081055,0.09979248
0.7685,0.162963867,0.114440918
0.769,0.142211914,0.107421875
0.7695,0.136108398,0.104064941
0.77,0.132751465,0.105285645
0.7705,0.112609863,0.100708008
0.771,0.096435547,0.093383789
0.7715,0.066223145,0.079650879
0.772,0.029602051,0.062866211
0.7725,-0.004272461,0.041503906
0.773,-0.022583008,0.024414063
0.7735,-0.035095215,0.014648438
0.774,-0.047302246,0.004882813
0.7745,-0.068054199,-0.010986328
0.775,-0.077209473,-0.026550293
0.7755,-0.088806152,-0.042724609
0.776,-0.115966797,-0.065917969
0.7765,-0.129089355,-0.081787109
0.777,-0.108642578,-0.075378418
0.7775,-0.099487305,-0.071105957
0.778,-0.139465332,-0.092773438
0.7785,-0.148010254,-0.107116699
0.779,-0.133361816,-0.100097656
0.7795,-0.126342773,-0.097045898
0.78,-0.124511719,-0.103149414
0.7805,-0.103759766,-0.097961426
0.781,-0.093688965,-0.094909668
0.7815,-0.068359375,-0.087585449
0.782,-0.025024414,-0.065307617
0.7825,0.011901855,-0.043640137
0.783,0.036010742,-0.027160645
0.7835,0.049438477,-0.014343262
0.784,0.055236816,-0.005187988
0.7845,0.068359375,0.010986328
0.785,0.079956055,0.028076172
0.7855,0.097351074,0.04486084
0.786,0.118713379,0.068664551
0.7865,0.120849609,0.087280273
0.787,0.096740723,0.081787109
0.7875,0.082092285,0.074462891
0.788,0.116271973,0.095825195
0.7885,0.119934082,0.111083984
0.789,0.098571777,0.101928711
0.7895,0.09552002,0.098876953
0.79,0.103759766,0.101318359
0.7905,0.094604492,0.09765625
0.791,0.086669922,0.090637207
0.7915,0.070800781,0.083312988
0.792,0.046691895,0.064086914
0.7925,0.016784668,0.043029785
0.793,-0.002441406,0.023193359
0.7935,-0.01373291,0.009460449
0.794,-0.021972656,-0.000305176
0.7945,-0.042114258,-0.018310547
0.795,-0.060424805,-0.032653809
0.7955,-0.078735352,-0.048828125
0.796,-0.106506348,-0.073242188
0.7965,-0.118408203,-0.089111328
0.797,-0.100402832,-0.085449219
0.7975,-0.08972168,-0.079040527
0.798,-0.130004883,-0.10345459
0.7985,-0.13885498,-0.122070313
0.799,-0.119018555,-0.113830566
0.7995,-0.107727051,-0.111083984
0.8,-0.093688965,-0.11138916
0.8005,-0.065307617,-0.10345459
0.801,-0.048522949,-0.092163086
0.8015,-0.018920898,-0.07598877
0.802,0.017089844,-0.05645752
0.8025,0.037536621,-0.030212402
0.803,0.045471191,-0.011291504
0.8035,0.04486084,-0.000915527
0.804,0.0390625,0.00579834
0.8045,0.044555664,0.013427734
0.805,0.056152344,0.024108887
0.8055,0.07598877,0.040283203
0.806,0.10559082,0.063781738
0.8065,0.123291016,0.082092285
0.807,0.106506348,0.079040527
0.8075,0.096740723,0.072937012
0.808,0.126647949,0.092468262
0.8085,0.123596191,0.10925293
0.809,0.096435547,0.098571777
0.8095,0.090637207,0.097351074
0.81,0.086669922,0.096740723
0.8105,0.069885254,0.090332031
0.811,0.059509277,0.086975098
0.8115,0.045471191,0.074462891
0.812,0.024108887,0.055236816
0.8125,0.00579834,0.034790039
0.8130000000000001,0.006103516,0.018615723
0.8135,0.003662109,0.008239746
0.8140000000000001,-0.001220703,-0.001525879
0.8145,-0.025024414,-0.018310547
0.8150000000000001,-0.048522949,-0.032348633
0.8155,-0.076599121,-0.045471191
0.8160000000000001,-0.120239258,-0.069274902
0.8165,-0.144348145,-0.090026855
0.8170000000000001,-0.137329102,-0.088806152
0.8175,-0.130004883,-0.085144043
0.8180000000000001,-0.164489746,-0.104370117
0.8185,-0.174255371,-0.120544434
0.8190000000000001,-0.144042969,-0.109863281
0.8195,-0.133666992,-0.103149414
0.8200000000000001,-0.126953125,-0.104675293
0.8205,-0.108642578,-0.099182129
0.8210000000000001,-0.099487305,-0.094299316
0.8215,-0.082092285,-0.086364746
0.8220000000000001,-0.053710938,-0.068664551
0.8225,-0.025634766,-0.046386719
0.8230000000000001,-0.004577637,-0.028076172
0.8235,0.006713867,-0.012817383
0.8240000000000001,0.012817383,-0.000610352
0.8245,0.035705566,0.012207031
0.8250000000000001,0.066833496,0.023193359
0.8255,0.097351074,0.035705566
0.8260000000000001,0.141906738,0.055236816
0.8265,0.163574219,0.072937012
0.8270000000000001,0.149230957,0.069274902
0.8275,0.136108398,0.064697266
0.8280000000000001,0.157775879,0.083618164
0.8285,0.156860352,0.101928711
0.8290000000000001,0.12512207,0.093994141
0.8295,0.121154785,0.093078613
0.8300000000000001,0.126647949,0.096130371
0.8305,0.113830566,0.092468262
0.8310000000000001,0.097961426,0.085754395
0.8315,0.075073242,0.076293945
0.8320000000000001,0.042114258,0.057067871
0.8325,0.008544922,0.036010742
0.833,-0.01373291,0.016174316
0.8335,-0.024108887,0.006103516
0.834,-0.034179688,-0.005493164
0.8345,-0.055847168,-0.019836426
0.835,-0.066833496,-0.033569336
0.8355,-0.07598877,-0.04699707
0.836,-0.096740723,-0.067443848
0.8365,-0.108947754,-0.086975098
0.837,-0.085754395,-0.083312988
0.8375,-0.067443848,-0.077514648
0.838,-0.101013184,-0.095214844
0.8385,-0.113220215,-0.111694336
0.839,-0.092468262,-0.104370117
0.8395,-0.085144043,-0.101928711
0.84,-0.082702637,-0.106201172
0.8405,-0.066223145,-0.099487305
0.841,-0.061950684,-0.094909668
0.8415,-0.054321289,-0.085754395
0.842,-0.03326416,-0.067138672
0.8425,-0.01373291,-0.042724609
0.843,0.000610352,-0.025024414
0.8435,0.016479492,-0.00793457
0.844,0.025634766,0.002441406
0.8445,0.04119873,0.015563965
0.845,0.054626465,0.03326416
0.8455,0.064086914,0.047302246
0.846,0.075683594,0.065307617
0.8465,0.085144043,0.085754395
0.847,0.07232666,0.085449219
0.8475,0.07019043,0.084533691
0.848,0.11138916,0.104370117
0.8485,0.122070313,0.12298584
0.849,0.101013184,0.11138916
0.8495,0.102539063,0.102539063
0.85,0.114746094,0.104064941
0.8505,0.106506348,0.097961426
0.851,0.106506348,0.090637207
0.8515,0.093994141,0.078735352
0.852,0.068969727,0.059814453
0.8525,0.042724609,0.0390625
0.853,0.018005371,0.023498535
0.8535,0.002441406,0.01159668
0.854,-0.007019043,0.000915527
0.8545,-0.029907227,-0.013122559
0.855,-0.05279541,-0.02532959
0.8555,-0.07598877,-0.039367676
0.856,-0.111694336,-0.058288574
0.8565,-0.134277344,-0.078430176
0.857,-0.113525391,-0.080871582
0.8575,-0.090026855,-0.076904297
0.858,-0.107421875,-0.093994141
0.8585,-0.116271973,-0.11138916
0.859,-0.098876953,-0.10345459
0.8595,-0.090942383,-0.100708008
0.86,-0.086669922,-0.102539063
0.8605,-0.072021484,-0.097961426
0.861,-0.059814453,-0.09185791
0.8615,-0.048217773,-0.081176758
0.862,-0.033569336,-0.063476563
0.8625,-0.012512207,-0.039672852
0.863,-0.00213623,-0.022277832
0.8635,0.003662109,-0.008239746
0.864,0.006408691,0.00213623
0.8645,0.02532959,0.014343262
0.865,0.040893555,0.031738281
0.8655,0.060119629,0.047302246
0.866,0.095214844,0.069885254
0.8665,0.119934082,0.088195801
0.867,0.113525391,0.082702637
0.8675,0.107421875,0.076293945
0.868,0.147094727,0.093383789
0.8685,0.158691406,0.110473633
0.869,0.144348145,0.102844238
0.8695,0.145263672,0.102233887
0.87,0.143432617,0.104370117
0.8705,0.122070313,0.102539063
0.871,0.104370117,0.096130371
0.8715,0.071716309,0.083618164
0.872,0.029602051,0.065917969
0.8725,-0.010070801,0.042724609
0.873,-0.035705566,0.023803711
0.8735,-0.04486084,0.010986328
0.874,-0.052490234,0.003662109
0.8745,-0.075378418,-0.01159668
0.875,-0.092773438,-0.027160645
0.8755000000000001,-0.098266602,-0.036315918
0.876,-0.112609863,-0.057678223
0.8765000000000001,-0.114135742,-0.07598877
0.877,-0.094604492,-0.076293945
0.8775000000000001,-0.084533691,-0.07019043
0.878,-0.121459961,-0.086364746
0.8785000000000001,-0.139465332,-0.107116699
0.879,-0.119628906,-0.100708008
0.8795000000000001,-0.120544434,-0.096435547
0.88,-0.120544434,-0.101623535
0.8805000000000001,-0.109558105,-0.094299316
0.881,-0.101928711,-0.087585449
0.8815000000000001,-0.084533691,-0.080871582
0.882,-0.055541992,-0.06072998
0.8825000000000001,-0.026550293,-0.039672852
0.883,-0.008850098,-0.020751953
0.8835000000000001,0.006103516,-0.004577637
0.884,0.015258789,0.005187988
0.8845000000000001,0.033569336,0.018310547
0.885,0.057678223,0.03326416
0.8855000000000001,0.079040527,0.047607422
0.886,0.104675293,0.068664551
0.8865000000000001,0.118408203,0.088806152
0.887,0.100708008,0.08605957
0.8875000000000001,0.090637207,0.082702637
0.888,0.11932373,0.099182129
0.8885000000000001,0.13092041,0.119018555
0.889,0.109863281,0.110778809
0.8895000000000001,0.100402832,0.106811523
0.89,0.101623535,0.108947754
0.8905000000000001,0.098571777,0.106811523
0.891,0.094604492,0.101013184
0.8915000000000001,0.083007813,0.093994141
0.892,0.062561035,0.075073242
0.8925000000000001,0.04119873,0.052185059
0.893,0.022277832,0.034179688
0.8935000000000001,0.009765625,0.020751953
0.894,0.000305176,0.01159668
0.8945000000000001,-0.015258789,-0.000915527
0.895,-0.030212402,-0.016174316
0.8955000000000001,-0.050354004,-0.030822754
0.896,-0.075073242,-0.053710938
0.8965,-0.086364746,-0.074768066
0.897,-0.068664551,-0.075378418
0.8975,-0.060119629,-0.073242188
0.898,-0.102233887,-0.091552734
0.8985,-0.133666992,-0.111999512
0.899,-0.125427246,-0.104370117
0.8995,-0.129394531,-0.102844238
0.9,-0.131530762,-0.104064941
0.9005,-0.120239258,-0.099487305
0.901,-0.106811523,-0.092773438
0.9015,-0.08392334,-0.081481934
0.902,-0.051574707,-0.062561035
0.9025,-0.023803711,-0.042724609
0.903,-0.000915527,-0.024108887
0.9035,0.012817383,-0.010070801
0.904,0.012207031,-0.004577637
0.9045,0.026245117,0.003662109
0.905,0.042724609,0.01953125
0.9055,0.056152344,0.034484863
0.906,0.079040527,0.054016113
0.9065,0.094604492,0.077514648
0.907,0.079650879,0.079345703
0.9075,0.067443848,0.071716309
0.908,0.098571777,0.08605957
0.9085,0.119628906,0.108947754
0.909,0.103759766,0.101623535
0.9095,0.109863281,0.097961426
0.91,0.12512207,0.097961426
0.9105,0.119628906,0.092773438
0.911,0.103759766,0.08605957
0.9115,0.079345703,0.079650879
0.912,0.038452148,0.063171387
0.9125,-0.001220703,0.043029785
0.913,-0.026855469,0.021057129
0.9135,-0.038146973,0.008544922
0.914,-0.047302246,0.000610352
0.9145,-0.066833496,-0.010375977
0.915,-0.080566406,-0.02166748
0.9155,-0.096740723,-0.033569336
0.916,-0.121154785,-0.054931641
0.9165,-0.127258301,-0.076599121
0.917,-0.106506348,-0.075683594
0.9175,-0.089416504,-0.069885254
0.918,-0.117797852,-0.085449219
0.9185,-0.133666992,-0.108947754
0.919,-0.109863281,-0.102539063
0.9195,-0.089416504,-0.09552002
0.92,-0.08392334,-0.095214844
0.9205,-0.073242188,-0.088195801
0.921,-0.067138672,-0.080871582
0.9215,-0.056762695,-0.073547363
0.922,-0.038452148,-0.061035156
0.9225,-0.018310547,-0.038146973
0.923,0.003051758,-0.02166748
0.9235,0.019836426,-0.009460449
0.924,0.026855469,-0.00213623
0.9245,0.038146973,0.01159668
0.925,0.047607422,0.02532959
0.9255,0.059204102,0.038146973
0.926,0.08026123,0.059204102
0.9265,0.095825195,0.083312988
0.927,0.087585449,0.086364746
0.9275,0.077209473,0.083618164
0.928,0.107421875,0.094299316
0.9285,0.130310059,0.114746094
0.929,0.115661621,0.107116699
0.9295,0.114135742,0.101318359
0.93,0.1171875,0.101928711
0.9305,0.106811523,0.095825195
0.931,0.093994141,0.08972168
0.9315,0.075378418,0.080566406
0.932,0.04486084,0.062255859
0.9325,0.01373291,0.040283203
0.933,-0.007324219,0.022583008
0.9335,-0.021362305,0.015258789
0.934,-0.032348633,0.004577637
0.9345,-0.054016113,-0.009155273
0.935,-0.071411133,-0.028076172
0.9355,-0.082092285,-0.038757324
0.936,-0.106201172,-0.057983398
0.9365,-0.121459961,-0.078430176
0.937,-0.104980469,-0.079040527
0.9375,-0.090942383,-0.071105957
0.938,-0.120849609,-0.083618164
0.9385,-0.138244629,-0.106506348
0.939,-0.115356445,-0.098266602
0.9395,-0.106506348,-0.093383789
0.94,-0.107116699,-0.09765625
0.9405,-0.095825195,-0.090942383
0.941,-0.087585449,-0.083007813
0.9415,-0.075378418,-0.075073242
0.942,-0.044555664,-0.060119629
0.9425,-0.004882813,-0.035095215
0.943,0.024719238,-0.018310547
0.9435,0.040588379,-0.007629395
0.944,0.05065918,0.001525879
0.9445,0.058288574,0.012512207
0.945,0.064697266,0.029602051
0.9455,0.072631836,0.04486084
0.946,0.092468262,0.065917969
0.9465,0.108947754,0.086975098
0.947,0.097045898,0.087890625
0.9475,0.091247559,0.082092285
0.948,0.130004883,0.094909668
0.9485,0.151672363,0.114440918
0.949,0.127868652,0.104675293
0.9495,0.124206543,0.101318359
0.95,0.120849609,0.10559082
0.9505,0.103149414,0.104980469
0.951,0.085754395,0.097045898
0.9515,0.066833496,0.087585449
0.952,0.041503906,0.069580078
0.9525,0.010375977,0.049438477
0.953,-0.018005371,0.026855469
0.9535,-0.032348633,0.015258789
0.954,-0.036010742,0.006408691
0.9545,-0.048217773,-0.005493164
0.955,-0.057983398,-0.016479492
0.9555,-0.073547363,-0.029296875
0.956,-0.099182129,-0.05279541
0.9565,-0.114440918,-0.07598877
0.957,-0.107421875,-0.079956055
0.9575,-0.104980469,-0.076904297
0.958,-0.137329102,-0.088195801
0.9585,-0.154418945,-0.112304688
0.959,-0.133361816,-0.106201172
0.9595,-0.121459961,-0.101928711
0.96,-0.121154785,-0.103759766
0.9605,-0.108642578,-0.097961426
0.961,-0.099487305,-0.088806152
0.9615,-0.078430176,-0.079345703
0.962,-0.045471191,-0.06072998
0.9625,-0.008239746,-0.0390625
0.963,0.023498535,-0.020446777
0.9635,0.041809082,-0.007324219
0.964,0.048522949,0.004577637
0.9645,0.058288574,0.013427734
0.965,0.07232666,0.02746582
0.9655,0.084838867,0.04119873
0.966,0.10925293,0.058898926
0.9665,0.127258301,0.07598877
0.967,0.114440918,0.078125
0.9675,0.101318359,0.072631836
0.968,0.12512207,0.08605957
0.9685,0.141601563,0.111999512
0.969,0.116882324,0.105285645
0.9695,0.106811523,0.101928711
0.97,0.104675293,0.103149414
0.9705,0.085449219,0.100097656
0.971,0.065002441,0.092468262
0.9715,0.054016113,0.087280273
0.972,0.039978027,0.072631836
0.9725,0.025939941,0.05065918
0.973,0.017089844,0.032348633
0.9735,0.00793457,0.019836426
0.974,-0.008544922,0.008544922
0.9745,-0.033569336,-0.005187988
0.975,-0.059509277,-0.01953125
0.9755,-0.080871582,-0.031433105
0.976,-0.109863281,-0.050964355
0.9765,-0.133361816,-0.069580078
0.977,-0.121765137,-0.073852539
0.9775,-0.108032227,-0.067749023
0.978,-0.133361816,-0.078735352
0.9785,-0.148620605,-0.100708008
0.979,-0.123291016,-0.095825195
0.9795,-0.115661621,-0.093688965
0.98,-0.114135742,-0.094604492
0.9805,-0.098266602,-0.091552734
0.981,-0.082702637,-0.084533691
0.9815,-0.070495605,-0.076904297
0.982,-0.045471191,-0.06072998
0.9825,-0.016784668,-0.036010742
0.983,0.00213623,-0.018310547
0.9835,0.010986328,-0.006103516
0.984,0.016784668,0.001220703
0.9845,0.028686523,0.008850098
0.985,0.044250488,0.021362305
0.9855,0.063171387,0.037536621
0.986,0.091552734,0.059204102
0.9865,0.114135742,0.079956055
0.987,0.105285645,0.082397461
0.9875,0.098571777,0.077819824
0.988,0.122375488,0.090026855
0.9885,0.142822266,0.114746094
0.989,0.12512207,0.106811523
0.9895,0.115356445,0.101013184
0.99,0.107727051,0.100097656
0.9905,0.096740723,0.097351074
0.991,0.088195801,0.090942383
0.9915,0.073547363,0.082397461
0.992,0.046691895,0.067138672
0.9925,0.01739502,0.045776367
0.993,-0.006103516,0.025634766
0.9935,-0.016784668,0.013427734
0.994,-0.021362305,0
0.9945,-0.035400391,-0.012207031
0.995,-0.046386719,-0.025634766
0.9955,-0.061035156,-0.039367676
0.996,-0.084228516,-0.058288574
0.9965,-0.107727051,-0.078125
0.997,-0.110778809,-0.083007813
0.9975,-0.108947754,-0.077514648
0.998,-0.139770508,-0.085754395
0.9985,-0.163879395,-0.107116699
0.999,-0.140075684,-0.104064941
0.9995,-0.126342773,-0.100097656
1,-0.112915039,-0.094909668
