Time,EMG_zyg,EMG_cor
50.0005,-0.145568848,-0.097045898
50.001,-0.129089355,-0.100708008
50.0015,-0.118713379,-0.101928711
50.002,-0.118103027,-0.104675293
50.0025,-0.104370117,-0.09765625
50.003,-0.09185791,-0.087585449
50.0035,-0.078125,-0.081787109
50.004,-0.05279541,-0.067443848
50.0045,-0.018920898,-0.043640137
50.005,0.00579834,-0.024414063
50.0055,0.016479492,-0.00793457
50.006,0.024719238,0.002441406
50.0065,0.041503906,0.014343262
50.007,0.063171387,0.034790039
50.0075,0.079650879,0.048522949
50.008,0.102844238,0.069274902
50.0085,0.130004883,0.092773438
50.009,0.116577148,0.096740723
50.0095,0.102539063,0.095214844
50.01,0.124816895,0.10345459
50.0105,0.154724121,0.129089355
50.011,0.133666992,0.129394531
50.0115,0.125427246,0.129394531
50.012,0.124816895,0.134277344
50.0125,0.111083984,0.133056641
50.013,0.098876953,0.121459961
50.0135,0.085144043,0.105895996
50.014,0.061340332,0.077514648
50.0145,0.028991699,0.045166016
50.015,0.001831055,0.023193359
50.0155,-0.007629395,0.010375977
50.016,-0.017700195,-0.000610352
50.0165,-0.03692627,-0.016784668
50.017,-0.054626465,-0.032958984
50.0175,-0.068969727,-0.049438477
50.018,-0.095214844,-0.069885254
50.0185,-0.120849609,-0.093994141
50.019,-0.111694336,-0.100402832
50.0195,-0.096435547,-0.093994141
50.02,-0.1171875,-0.102844238
50.0205,-0.144042969,-0.127563477
50.021,-0.127563477,-0.125732422
50.0215,-0.120239258,-0.123596191
50.022,-0.119628906,-0.124206543
50.0225,-0.104980469,-0.115661621
50.023,-0.08972168,-0.105895996
50.0235,-0.079345703,-0.099182129
50.024,-0.053100586,-0.081481934
50.0245,-0.019226074,-0.054016113
50.025,0.007019043,-0.030212402
50.0255,0.017089844,-0.016784668
50.026,0.027160645,-0.006408691
50.0265,0.045166016,0.009765625
50.027,0.063476563,0.030212402
50.0275,0.079345703,0.045166016
50.028,0.10345459,0.069580078
50.0285,0.129394531,0.098876953
50.029,0.117797852,0.110473633
50.0295,0.103149414,0.105285645
50.03,0.123291016,0.114440918
50.0305,0.149230957,0.13458252
50.031,0.132446289,0.124816895
50.0315,0.123291016,0.112609863
50.032,0.124511719,0.107116699
50.0325,0.112915039,0.09979248
50.033,0.096435547,0.087280273
50.0335,0.082092285,0.07232666
50.034,0.055541992,0.057067871
50.0345,0.027160645,0.035095215
50.035,-0.001525879,0.019226074
50.0355,-0.010681152,0.00579834
50.036,-0.022277832,-0.000915527
50.0365,-0.040588379,-0.014038086
50.037,-0.059814453,-0.028076172
50.0375,-0.075073242,-0.037231445
50.038,-0.102233887,-0.055236816
50.0385,-0.127258301,-0.080566406
50.039,-0.11505127,-0.083312988
50.0395,-0.097961426,-0.077209473
50.04,-0.116882324,-0.085144043
50.0405,-0.145263672,-0.111999512
50.041,-0.128173828,-0.108947754
50.0415,-0.12298584,-0.101623535
50.042,-0.123901367,-0.103149414
50.0425,-0.110473633,-0.09979248
50.043,-0.09552002,-0.089111328
50.0435,-0.086669922,-0.078735352
50.044,-0.05859375,-0.060119629
50.0445,-0.025939941,-0.034484863
50.045,0.000915527,-0.015563965
50.0455,0.009460449,-0.003662109
50.046,0.022888184,0.004577637
50.0465,0.037231445,0.014953613
50.047,0.055847168,0.028381348
50.0475,0.07598877,0.039978027
50.048,0.102233887,0.05859375
50.0485,0.126647949,0.084228516
50.049,0.114746094,0.087890625
50.0495,0.100402832,0.079956055
50.05,0.120849609,0.090332031
50.0505,0.147399902,0.118408203
50.051,0.128479004,0.124206543
50.0515,0.119628906,0.123291016
50.052,0.120849609,0.119934082
50.0525,0.11138916,0.118408203
50.053,0.09552002,0.111694336
50.0535,0.079956055,0.102844238
50.054,0.055847168,0.086364746
50.0545,0.024719238,0.061645508
50.055,-0.003051758,0.038757324
50.0555,-0.014343262,0.02532959
50.056,-0.021362305,0.017089844
50.0565,-0.042114258,-0.001831055
50.057,-0.06072998,-0.02532959
50.0575,-0.072937012,-0.039367676
50.058,-0.101013184,-0.057373047
50.0585,-0.126037598,-0.082092285
50.059,-0.116882324,-0.087280273
50.0595,-0.101623535,-0.082397461
50.06,-0.119628906,-0.093078613
50.0605,-0.151062012,-0.120849609
50.061,-0.133972168,-0.113525391
50.0615,-0.125427246,-0.109558105
50.062,-0.126037598,-0.10925293
50.0625,-0.11138916,-0.104370117
50.063,-0.094909668,-0.090026855
50.0635,-0.08392334,-0.078125
50.064,-0.054931641,-0.062866211
50.0645,-0.01953125,-0.036010742
50.065,0.007324219,-0.015258789
50.0655,0.015258789,0.000915527
50.066,0.024719238,0.007019043
50.0665,0.042419434,0.016479492
50.067,0.062561035,0.030212402
50.0675,0.079040527,0.045471191
50.068,0.104675293,0.061645508
50.0685,0.131835938,0.087585449
50.069,0.117797852,0.088500977
50.0695,0.104980469,0.084838867
50.07,0.124511719,0.090332031
50.0705,0.151672363,0.112304688
50.071,0.134277344,0.108642578
50.0715,0.126037598,0.097351074
50.072,0.126037598,0.096130371
50.0725,0.115356445,0.091247559
50.073,0.100402832,0.085144043
50.0735,0.086975098,0.079956055
50.074,0.060119629,0.068359375
50.0745,0.030212402,0.051879883
50.075,0,0.033874512
50.0755,-0.006713867,0.021362305
50.076,-0.016174316,0.008544922
50.0765,-0.037536621,-0.010375977
50.077,-0.053100586,-0.026245117
50.0775,-0.066223145,-0.036010742
50.078,-0.094909668,-0.054016113
50.0785,-0.124206543,-0.079040527
50.079,-0.114746094,-0.085754395
50.0795,-0.100708008,-0.079956055
50.08,-0.120239258,-0.084838867
50.0805,-0.146484375,-0.106506348
50.081,-0.127868652,-0.103759766
50.0815,-0.121765137,-0.097045898
50.082,-0.121765137,-0.099487305
50.0825,-0.107421875,-0.097351074
50.083,-0.092468262,-0.088500977
50.0835,-0.081176758,-0.084838867
50.084,-0.055236816,-0.069885254
50.0845,-0.024108887,-0.044250488
50.085,0.003051758,-0.022888184
50.0855,0.016174316,-0.008239746
50.086,0.023498535,0.001220703
50.0865,0.037231445,0.014953613
50.087,0.059509277,0.032348633
50.0875,0.07598877,0.046386719
50.088,0.100402832,0.065002441
50.0885,0.125732422,0.081176758
50.089,0.112915039,0.085754395
50.0895,0.099487305,0.079650879
50.09,0.118103027,0.092468262
50.0905,0.146179199,0.118408203
50.091,0.128479004,0.120544434
50.0915,0.119934082,0.114135742
50.092,0.122680664,0.117492676
50.0925,0.110778809,0.114135742
50.093,0.094604492,0.104370117
50.0935,0.078735352,0.093383789
50.094,0.054931641,0.07232666
50.0945,0.023193359,0.041503906
50.095,-0.005493164,0.014648438
50.0955,-0.012817383,-0.002441406
50.096,-0.02166748,-0.010681152
50.0965,-0.043029785,-0.025634766
50.097,-0.059814453,-0.039672852
50.0975,-0.075683594,-0.051269531
50.098,-0.101318359,-0.07019043
50.0985,-0.128479004,-0.093688965
50.099,-0.119934082,-0.097351074
50.0995,-0.102844238,-0.089111328
50.1,-0.119934082,-0.094604492
50.1005,-0.149536133,-0.119018555
50.101,-0.131530762,-0.114440918
50.1015,-0.123596191,-0.104064941
50.102,-0.127258301,-0.103759766
50.1025,-0.11505127,-0.097045898
50.103,-0.099487305,-0.087585449
50.1035,-0.08605957,-0.083312988
50.104,-0.06072998,-0.07019043
50.1045,-0.029602051,-0.049133301
50.105,-0.003051758,-0.030822754
50.1055,0.010375977,-0.015258789
50.106,0.017700195,-0.004577637
50.1065,0.034179688,0.008544922
50.107,0.054931641,0.024108887
50.1075,0.071105957,0.035705566
50.108,0.093383789,0.053710938
50.1085,0.122375488,0.073547363
50.109,0.110473633,0.079956055
50.1095,0.095825195,0.074768066
50.11,0.115661621,0.079345703
50.1105,0.148010254,0.104675293
50.111,0.129394531,0.107727051
50.1115,0.1171875,0.10559082
50.112,0.119628906,0.103759766
50.1125,0.111083984,0.098571777
50.113,0.092468262,0.087585449
50.1135,0.079956055,0.076599121
50.114,0.05645752,0.059814453
50.1145,0.024414063,0.035095215
50.115,-0.005187988,0.015563965
50.1155,-0.012512207,0.003662109
50.116,-0.023498535,-0.001831055
50.1165,-0.039978027,-0.016174316
50.117,-0.057373047,-0.030517578
50.1175,-0.074462891,-0.040588379
50.118,-0.105895996,-0.059509277
50.1185,-0.132141113,-0.079345703
50.119,-0.121765137,-0.082092285
50.1195,-0.105285645,-0.072937012
50.12,-0.124511719,-0.083312988
50.1205,-0.155334473,-0.109863281
50.121,-0.139465332,-0.109863281
50.1215,-0.129699707,-0.105285645
50.122,-0.127868652,-0.107727051
50.1225,-0.114440918,-0.105895996
50.123,-0.098876953,-0.09552002
50.1235,-0.088500977,-0.088500977
50.124,-0.061950684,-0.073852539
50.1245,-0.029296875,-0.048828125
50.125,-0.002441406,-0.027770996
50.1255,0.007019043,-0.011291504
50.126,0.015563965,-0.003356934
50.1265,0.034179688,0.012207031
50.127,0.054626465,0.031738281
50.1275,0.070495605,0.048828125
50.128,0.097045898,0.067749023
50.1285,0.122680664,0.093994141
50.129,0.112915039,0.101318359
50.1295,0.098571777,0.092773438
50.13,0.116271973,0.096740723
50.1305,0.144348145,0.1171875
50.131,0.125732422,0.108642578
50.1315,0.118713379,0.096435547
50.132,0.119628906,0.097961426
50.1325,0.108642578,0.098876953
50.133,0.09185791,0.090637207
50.1335,0.080566406,0.085144043
50.134,0.057678223,0.072937012
50.1345,0.026245117,0.055236816
50.135,-0.003051758,0.039978027
50.1355,-0.010986328,0.029296875
50.136,-0.024108887,0.019836426
50.1365,-0.043029785,0.007324219
50.137,-0.061645508,-0.009155273
50.1375,-0.074462891,-0.023803711
50.138,-0.101318359,-0.04486084
50.1385,-0.126647949,-0.065002441
50.139,-0.116271973,-0.067138672
50.1395,-0.100402832,-0.059509277
50.14,-0.119628906,-0.07019043
50.1405,-0.152587891,-0.101013184
50.141,-0.134887695,-0.107421875
50.1415,-0.126037598,-0.106811523
50.142,-0.129089355,-0.110168457
50.1425,-0.115356445,-0.109863281
50.143,-0.100097656,-0.102233887
50.1435,-0.088500977,-0.096435547
50.144,-0.062866211,-0.08026123
50.1445,-0.030212402,-0.055541992
50.145,-0.003356934,-0.03692627
50.1455,0.012207031,-0.018615723
50.146,0.019836426,-0.011291504
50.1465,0.03326416,-0.001831055
50.147,0.056762695,0.009765625
50.1475,0.074462891,0.021057129
50.148,0.097045898,0.037536621
50.1485,0.123291016,0.065307617
50.149,0.112915039,0.069580078
50.1495,0.09979248,0.062255859
50.15,0.118713379,0.064697266
50.1505,0.148010254,0.090637207
50.151,0.128479004,0.090026855
50.1515,0.119934082,0.085754395
50.152,0.121154785,0.087585449
50.1525,0.108337402,0.084228516
50.153,0.094604492,0.075073242
50.1535,0.080871582,0.075683594
50.154,0.053405762,0.070495605
50.1545,0.020751953,0.051574707
50.155,-0.00579834,0.031433105
50.1555,-0.010681152,0.017700195
50.156,-0.025939941,0.006103516
50.1565,-0.044555664,-0.013122559
50.157,-0.061340332,-0.029602051
50.1575,-0.077209473,-0.04699707
50.158,-0.102844238,-0.068359375
50.1585,-0.129699707,-0.092163086
50.159,-0.11932373,-0.094909668
50.1595,-0.102844238,-0.089111328
50.16,-0.119628906,-0.097961426
50.1605,-0.152587891,-0.120239258
50.161,-0.134887695,-0.118103027
50.1615,-0.12298584,-0.11138916
50.162,-0.127258301,-0.110778809
50.1625,-0.115661621,-0.108642578
50.163,-0.100097656,-0.097351074
50.1635,-0.088806152,-0.089111328
50.164,-0.063476563,-0.073852539
50.1645,-0.028686523,-0.050354004
50.165,-0.00579834,-0.030822754
50.1655,0.00793457,-0.011901855
50.166,0.014648438,-0.003356934
50.1665,0.031433105,0.010986328
50.167,0.055236816,0.028991699
50.1675,0.072631836,0.043945313
50.168,0.096435547,0.059814453
50.1685,0.124511719,0.082092285
50.169,0.114746094,0.082702637
50.1695,0.098876953,0.073242188
50.17,0.115661621,0.077819824
50.1705,0.14831543,0.105285645
50.171,0.132446289,0.10559082
50.1715,0.12512207,0.102233887
50.172,0.12512207,0.103759766
50.1725,0.110778809,0.101013184
50.173,0.093994141,0.092163086
50.1735,0.079650879,0.087280273
50.174,0.053100586,0.075683594
50.1745,0.021057129,0.056762695
50.175,-0.00793457,0.044555664
50.1755,-0.013427734,0.039978027
50.176,-0.02532959,0.031738281
50.1765,-0.04486084,0.018615723
50.177,-0.064086914,0.002746582
50.1775,-0.079650879,-0.008239746
50.178,-0.104980469,-0.024108887
50.1785,-0.13092041,-0.047607422
50.179,-0.121459961,-0.06072998
50.1795,-0.106201172,-0.062866211
50.18,-0.124816895,-0.079956055
50.1805,-0.153503418,-0.111083984
50.181,-0.137939453,-0.113220215
50.1815,-0.126342773,-0.110778809
50.182,-0.126037598,-0.107116699
50.1825,-0.112304688,-0.10345459
50.183,-0.097045898,-0.09552002
50.1835,-0.086669922,-0.087890625
50.184,-0.057983398,-0.070495605
50.1845,-0.022888184,-0.04699707
50.185,0.003967285,-0.032958984
50.1855,0.014953613,-0.020751953
50.186,0.024719238,-0.015258789
50.1865,0.037841797,-0.003356934
50.187,0.057983398,0.015869141
50.1875,0.07232666,0.027770996
50.188,0.097045898,0.04119873
50.1885,0.122070313,0.062255859
50.189,0.110778809,0.06652832
50.1895,0.09552002,0.058898926
50.19,0.113220215,0.059814453
50.1905,0.145263672,0.083618164
50.191,0.129394531,0.087890625
50.1915,0.120544434,0.086364746
50.192,0.119934082,0.09185791
50.1925,0.109558105,0.094299316
50.193,0.094909668,0.087890625
50.1935,0.08026123,0.081787109
50.194,0.055236816,0.07232666
50.1945,0.021972656,0.053710938
50.195,-0.004577637,0.036621094
50.1955,-0.013427734,0.024108887
50.196,-0.025634766,0.018615723
50.1965,-0.048522949,0.01159668
50.197,-0.06439209,0.000610352
50.1975,-0.077514648,-0.007019043
50.198,-0.106811523,-0.025024414
50.1985,-0.131530762,-0.054626465
50.199,-0.119628906,-0.068969727
50.1995,-0.106201172,-0.076293945
50.2,-0.126953125,-0.093994141
50.2005,-0.157165527,-0.129699707
50.201,-0.13885498,-0.131530762
50.2015,-0.129089355,-0.128479004
50.202,-0.130310059,-0.133056641
50.2025,-0.118713379,-0.126037598
50.203,-0.103149414,-0.112609863
50.2035,-0.092163086,-0.101013184
50.204,-0.068359375,-0.082702637
50.2045,-0.032348633,-0.054016113
50.205,-0.00213623,-0.032653809
50.2055,0.008239746,-0.020751953
50.206,0.017089844,-0.016784668
50.2065,0.035400391,-0.006103516
50.207,0.055847168,0.008850098
50.2075,0.072631836,0.022888184
50.208,0.09765625,0.040588379
50.2085,0.126342773,0.063171387
50.209,0.118408203,0.066833496
50.2095,0.10559082,0.062255859
50.21,0.123291016,0.070800781
50.2105,0.153503418,0.101928711
50.211,0.136413574,0.104064941
50.2115,0.126647949,0.100402832
50.212,0.126953125,0.103759766
50.2125,0.113525391,0.103149414
50.213,0.098571777,0.092773438
50.2135,0.082702637,0.089111328
50.214,0.05859375,0.076599121
50.2145,0.028076172,0.05645752
50.215,0.000305176,0.036621094
50.2155,-0.008850098,0.028381348
50.216,-0.021362305,0.022888184
50.2165,-0.041503906,0.008850098
50.217,-0.057678223,-0.004577637
50.2175,-0.071716309,-0.018005371
50.218,-0.100097656,-0.035705566
50.2185,-0.123901367,-0.061950684
50.219,-0.115966797,-0.075378418
50.2195,-0.098876953,-0.070495605
50.22,-0.115356445,-0.083618164
50.2205,-0.146484375,-0.11505127
50.221,-0.129699707,-0.119018555
50.2215,-0.121765137,-0.115966797
50.222,-0.126342773,-0.122070313
50.2225,-0.112304688,-0.1171875
50.223,-0.093688965,-0.106201172
50.2235,-0.084228516,-0.095825195
50.224,-0.057983398,-0.077819824
50.2245,-0.022277832,-0.051574707
50.225,0.003356934,-0.031433105
50.2255,0.012817383,-0.020141602
50.226,0.02166748,-0.010681152
50.2265,0.0390625,0.004577637
50.227,0.059814453,0.022583008
50.2275,0.077209473,0.038452148
50.228,0.102539063,0.058898926
50.2285,0.129089355,0.080871582
50.229,0.117492676,0.085144043
50.2295,0.101318359,0.077819824
50.23,0.121459961,0.086364746
50.2305,0.152282715,0.113220215
50.231,0.135192871,0.111999512
50.2315,0.127868652,0.109863281
50.232,0.126037598,0.113830566
50.2325,0.116271973,0.110168457
50.233,0.100708008,0.098266602
50.2335,0.086669922,0.09552002
50.234,0.06072998,0.081787109
50.2345,0.02746582,0.061645508
50.235,0,0.040893555
50.2355,-0.009155273,0.029907227
50.236,-0.01953125,0.021362305
50.2365,-0.039672852,0.006408691
50.237,-0.057373047,-0.012512207
50.2375,-0.069885254,-0.026855469
50.238,-0.096740723,-0.049743652
50.2385,-0.122375488,-0.076904297
50.239,-0.113830566,-0.085144043
50.2395,-0.100097656,-0.079956055
50.24,-0.116271973,-0.090942383
50.2405,-0.145874023,-0.116882324
50.241,-0.130004883,-0.114440918
50.2415,-0.119934082,-0.105285645
50.242,-0.119934082,-0.104980469
50.2425,-0.108642578,-0.102844238
50.243,-0.09185791,-0.088500977
50.2435,-0.085449219,-0.080566406
50.244,-0.059814453,-0.063476563
50.2445,-0.026245117,-0.038452148
50.245,0.003967285,-0.023803711
50.2455,0.014953613,-0.009155273
50.246,0.026855469,0.003967285
50.2465,0.038757324,0.017700195
50.247,0.059814453,0.034484863
50.2475,0.079650879,0.046691895
50.248,0.103759766,0.066223145
50.2485,0.13092041,0.090026855
50.249,0.121765137,0.099487305
50.2495,0.10559082,0.092468262
50.25,0.123291016,0.094299316
50.2505,0.155334473,0.120544434
50.251,0.136108398,0.1171875
50.2515,0.126342773,0.110473633
50.252,0.127258301,0.111694336
50.2525,0.117492676,0.107727051
50.253,0.099487305,0.097045898
50.2535,0.08605957,0.093688965
50.254,0.062561035,0.08392334
50.2545,0.031433105,0.065002441
50.255,0.00213623,0.045166016
50.2555,-0.009460449,0.030212402
50.256,-0.022888184,0.019226074
50.2565,-0.041503906,0.002441406
50.257,-0.059814453,-0.013122559
50.2575,-0.072631836,-0.022583008
50.258,-0.101013184,-0.04119873
50.2585,-0.128479004,-0.068664551
50.259,-0.120849609,-0.079650879
50.2595,-0.104370117,-0.070495605
50.26,-0.118713379,-0.077514648
50.2605,-0.148620605,-0.106201172
50.261,-0.132751465,-0.108947754
50.2615,-0.126037598,-0.102844238
50.262,-0.12298584,-0.09765625
50.2625,-0.111083984,-0.092468262
50.263,-0.097961426,-0.08392334
50.2635,-0.087890625,-0.084533691
50.264,-0.061950684,-0.074768066
50.2645,-0.02746582,-0.050964355
50.265,-0.000305176,-0.033874512
50.2655,0.009155273,-0.019836426
50.266,0.021362305,-0.011291504
50.2665,0.035705566,0.000915527
50.267,0.060119629,0.021972656
50.2675,0.075683594,0.038146973
50.268,0.098571777,0.057373047
50.2685,0.123596191,0.077819824
50.269,0.11505127,0.079345703
50.2695,0.099487305,0.075073242
50.27,0.116271973,0.081481934
50.2705,0.150146484,0.108337402
50.271,0.130615234,0.109558105
50.2715,0.121765137,0.107727051
50.272,0.124816895,0.112304688
50.2725,0.111083984,0.11505127
50.273,0.093078613,0.103759766
50.2735,0.079040527,0.096740723
50.274,0.054931641,0.083618164
50.2745,0.024414063,0.061035156
50.275,-0.00793457,0.035705566
50.2755,-0.016784668,0.020751953
50.276,-0.028076172,0.007019043
50.2765,-0.045471191,-0.012817383
50.277,-0.064697266,-0.03112793
50.2775,-0.079345703,-0.046691895
50.278,-0.106811523,-0.069580078
50.2785,-0.134887695,-0.099182129
50.279,-0.12512207,-0.10559082
50.2795,-0.107421875,-0.096740723
50.28,-0.122375488,-0.101318359
50.2805,-0.155029297,-0.12512207
50.281,-0.138244629,-0.12298584
50.2815,-0.126953125,-0.114135742
50.282,-0.126953125,-0.114440918
50.2825,-0.114135742,-0.108032227
50.283,-0.099487305,-0.094909668
50.2835,-0.088806152,-0.087890625
50.284,-0.063476563,-0.068664551
50.2845,-0.028686523,-0.043334961
50.285,-0.00213623,-0.022583008
50.2855,0.007629395,-0.00793457
50.286,0.019836426,0.000305176
50.2865,0.032958984,0.009460449
50.287,0.057373047,0.025939941
50.2875,0.075073242,0.039367676
50.288,0.102539063,0.058288574
50.2885,0.127868652,0.082092285
50.289,0.11932373,0.084838867
50.2895,0.102539063,0.075683594
50.29,0.119628906,0.081481934
50.2905,0.152282715,0.110778809
50.291,0.13458252,0.11505127
50.2915,0.124206543,0.112609863
50.292,0.12512207,0.119628906
50.2925,0.114440918,0.119934082
50.293,0.09765625,0.111694336
50.2935,0.084838867,0.100097656
50.294,0.061340332,0.07598877
50.2945,0.027160645,0.046691895
50.295,0,0.022888184
50.2955,-0.009460449,0.010070801
50.296,-0.021362305,0.001220703
50.2965,-0.040283203,-0.010375977
50.297,-0.058288574,-0.026550293
50.2975,-0.069885254,-0.04119873
50.298,-0.096130371,-0.063476563
50.2985,-0.12298584,-0.087585449
50.299,-0.11505127,-0.094909668
50.2995,-0.097351074,-0.084228516
50.3,-0.113830566,-0.081176758
50.3005,-0.147094727,-0.101318359
50.301,-0.130004883,-0.096740723
50.3015,-0.120544434,-0.08972168
50.302,-0.122680664,-0.090026855
50.3025,-0.113220215,-0.08392334
50.303,-0.096130371,-0.074462891
50.3035,-0.086364746,-0.069274902
50.304,-0.06072998,-0.057373047
50.3045,-0.024719238,-0.039672852
50.305,-0.001831055,-0.02166748
50.3055,0.010070801,-0.007019043
50.306,0.02166748,0.005187988
50.3065,0.037841797,0.014343262
50.307,0.057983398,0.023498535
50.3075,0.072937012,0.031433105
50.308,0.097961426,0.049438477
50.3085,0.126342773,0.072021484
50.309,0.1171875,0.073852539
50.3095,0.101013184,0.068969727
50.31,0.115661621,0.07598877
50.3105,0.148620605,0.103149414
50.311,0.12878418,0.104675293
50.3115,0.118103027,0.101013184
50.312,0.121154785,0.102233887
50.3125,0.112304688,0.09765625
50.313,0.097045898,0.088195801
50.3135,0.081787109,0.080871582
50.314,0.056152344,0.06072998
50.3145,0.026855469,0.035705566
50.315,-0.001525879,0.012817383
50.3155,-0.010375977,0.001220703
50.316,-0.026550293,-0.008544922
50.3165,-0.043029785,-0.02166748
50.317,-0.058288574,-0.036621094
50.3175,-0.073852539,-0.048217773
50.318,-0.101013184,-0.067749023
50.3185,-0.129089355,-0.093078613
50.319,-0.122375488,-0.101013184
50.3195,-0.10345459,-0.09552002
50.32,-0.115966797,-0.098266602
50.3205,-0.146484375,-0.125427246
50.321,-0.131530762,-0.126342773
50.3215,-0.118713379,-0.123596191
50.322,-0.119934082,-0.122070313
50.3225,-0.11138916,-0.11505127
50.323,-0.094604492,-0.101623535
50.3235,-0.083618164,-0.094604492
50.324,-0.058898926,-0.079650879
50.3245,-0.025939941,-0.055847168
50.325,-0.000915527,-0.036010742
50.3255,0.014648438,-0.018005371
50.326,0.023193359,-0.009765625
50.3265,0.041503906,0.003662109
50.327,0.061950684,0.021972656
50.3275,0.077514648,0.037841797
50.328,0.102233887,0.061035156
50.3285,0.127258301,0.087585449
50.329,0.11932373,0.101623535
50.3295,0.104980469,0.09979248
50.33,0.117797852,0.105285645
50.3305,0.150756836,0.130310059
50.331,0.13458252,0.129089355
50.3315,0.12298584,0.123291016
50.332,0.124206543,0.122680664
50.3325,0.115356445,0.116577148
50.333,0.099487305,0.100402832
50.3335,0.085449219,0.085449219
50.334,0.06072998,0.067443848
50.3345,0.028381348,0.037841797
50.335,0.000305176,0.012817383
50.3355,-0.009155273,-0.000610352
50.336,-0.024719238,-0.013122559
50.3365,-0.039978027,-0.022583008
50.337,-0.057983398,-0.035400391
50.3375,-0.07232666,-0.046386719
50.338,-0.101013184,-0.063781738
50.3385,-0.129089355,-0.08392334
50.339,-0.120544434,-0.084838867
50.3395,-0.104064941,-0.071411133
50.34,-0.117797852,-0.071411133
50.3405,-0.151977539,-0.093688965
50.341,-0.135498047,-0.093688965
50.3415,-0.124816895,-0.086364746
50.342,-0.123291016,-0.084533691
50.3425,-0.113220215,-0.078125
50.343,-0.095214844,-0.061950684
50.3435,-0.084228516,-0.055236816
50.344,-0.061035156,-0.045776367
50.3445,-0.02746582,-0.030212402
50.345,0.001525879,-0.016784668
50.3455,0.014038086,-0.006713867
50.346,0.023803711,-0.006713867
50.3465,0.038452148,-0.001220703
50.347,0.05859375,0.011901855
50.3475,0.075378418,0.027160645
50.348,0.099182129,0.043640137
50.3485,0.123291016,0.063171387
50.349,0.116271973,0.068359375
50.3495,0.101013184,0.059814453
50.35,0.113830566,0.064086914
50.3505,0.149841309,0.08972168
50.351,0.13458252,0.095214844
50.3515,0.120544434,0.08972168
50.352,0.122375488,0.088195801
50.3525,0.11138916,0.087890625
50.353,0.095214844,0.082397461
50.3535,0.084533691,0.073852539
50.354,0.06072998,0.057067871
50.3545,0.027160645,0.037231445
50.355,-0.00213623,0.018005371
50.3555,-0.01159668,0.005493164
50.356,-0.023193359,-0.005493164
50.3565,-0.04119873,-0.016174316
50.357,-0.060119629,-0.029907227
50.3575,-0.07598877,-0.040588379
50.358,-0.101013184,-0.055541992
50.3585,-0.131225586,-0.077514648
50.359,-0.121459961,-0.082702637
50.3595,-0.104370117,-0.072021484
50.36,-0.115966797,-0.072631836
50.3605,-0.151672363,-0.096130371
50.361,-0.13671875,-0.101318359
50.3615,-0.125732422,-0.098876953
50.362,-0.128173828,-0.098876953
50.3625,-0.113525391,-0.094604492
50.363,-0.095825195,-0.085144043
50.3635,-0.089111328,-0.078430176
50.364,-0.065002441,-0.065612793
50.3645,-0.030517578,-0.043945313
50.365,-0.003662109,-0.025634766
50.3655,0.009765625,-0.014038086
50.366,0.020751953,-0.003051758
50.3665,0.034179688,0.009765625
50.367,0.053710938,0.025024414
50.3675,0.071716309,0.035400391
50.368,0.09765625,0.051879883
50.3685,0.122070313,0.075378418
50.369,0.115356445,0.08392334
50.3695,0.101318359,0.079040527
50.37,0.113830566,0.08392334
50.3705,0.147399902,0.108947754
50.371,0.132446289,0.107116699
50.3715,0.122070313,0.094604492
50.372,0.124206543,0.090332031
50.3725,0.114135742,0.086669922
50.373,0.097351074,0.075073242
50.3735,0.084228516,0.07232666
50.374,0.061645508,0.059814453
50.3745,0.030212402,0.033874512
50.375,-0.001220703,0.016174316
50.3755,-0.012207031,0.005493164
50.376,-0.022888184,-0.002746582
50.3765,-0.043334961,-0.015563965
50.377,-0.060119629,-0.023803711
50.3775,-0.073242188,-0.030517578
50.378,-0.09979248,-0.046691895
50.3785,-0.128479004,-0.068359375
50.379,-0.121765137,-0.074462891
50.3795,-0.105285645,-0.066223145
50.38,-0.115966797,-0.061035156
50.3805,-0.147094727,-0.080566406
50.381,-0.133972168,-0.081787109
50.3815,-0.124511719,-0.076293945
50.382,-0.121765137,-0.079956055
50.3825,-0.112304688,-0.083007813
50.383,-0.092163086,-0.074462891
50.3835,-0.083312988,-0.069274902
50.384,-0.059509277,-0.056762695
50.3845,-0.023803711,-0.036315918
50.385,0.003051758,-0.015258789
50.3855,0.012207031,-0.000610352
50.386,0.021057129,0.002746582
50.3865,0.033569336,0.007019043
50.387,0.055541992,0.016784668
50.3875,0.072021484,0.028991699
50.388,0.097961426,0.041809082
50.3885,0.124206543,0.058288574
50.389,0.117797852,0.061950684
50.3895,0.10345459,0.053405762
50.39,0.11505127,0.061340332
50.3905,0.146789551,0.088500977
50.391,0.130615234,0.090332031
50.3915,0.119628906,0.087890625
50.392,0.118408203,0.091552734
50.3925,0.109863281,0.092163086
50.393,0.093078613,0.08392334
50.3935,0.081787109,0.07598877
50.394,0.057983398,0.060119629
50.3945,0.024719238,0.037536621
50.395,-0.003662109,0.022277832
50.3955,-0.015563965,0.010681152
50.396,-0.023498535,0.007019043
50.3965,-0.039978027,-0.002441406
50.397,-0.057983398,-0.017089844
50.3975,-0.072021484,-0.029907227
50.398,-0.097961426,-0.05065918
50.3985,-0.127868652,-0.076904297
50.399,-0.121765137,-0.088806152
50.3995,-0.104675293,-0.08392334
50.4,-0.116577148,-0.088500977
50.4005,-0.149536133,-0.115661621
50.401,-0.134887695,-0.11932373
50.4015,-0.123901367,-0.113525391
50.402,-0.125427246,-0.112915039
50.4025,-0.111694336,-0.108642578
50.403,-0.096740723,-0.098876953
50.4035,-0.086975098,-0.093383789
50.404,-0.065002441,-0.073852539
50.4045,-0.031433105,-0.048217773
50.405,-0.002746582,-0.028686523
50.4055,0.008850098,-0.01373291
50.406,0.020446777,-0.00213623
50.4065,0.03692627,0.014343262
50.407,0.059204102,0.034484863
50.4075,0.073852539,0.050048828
50.408,0.097351074,0.067138672
50.4085,0.124511719,0.090637207
50.409,0.11505127,0.093994141
50.4095,0.100708008,0.085144043
50.41,0.112915039,0.087585449
50.4105,0.145874023,0.110473633
50.411,0.130615234,0.111083984
50.4115,0.11932373,0.099487305
50.412,0.120544434,0.093994141
50.4125,0.109558105,0.09185791
50.413,0.094299316,0.081176758
50.4135,0.080566406,0.072631836
50.414,0.056152344,0.061340332
50.4145,0.022888184,0.040283203
50.415,-0.003356934,0.018615723
50.4155,-0.015258789,0.006408691
50.416,-0.02532959,0.00213623
50.4165,-0.044555664,-0.011291504
50.417,-0.06072998,-0.026855469
50.4175,-0.074768066,-0.037231445
50.418,-0.101928711,-0.05279541
50.4185,-0.132141113,-0.067443848
50.419,-0.126953125,-0.068969727
50.4195,-0.109863281,-0.055236816
50.42,-0.124816895,-0.056152344
50.4205,-0.157165527,-0.081176758
50.421,-0.139465332,-0.086364746
50.4215,-0.127258301,-0.083312988
50.422,-0.130004883,-0.087280273
50.4225,-0.119018555,-0.08605957
50.423,-0.10345459,-0.082092285
50.4235,-0.093688965,-0.082397461
50.424,-0.068664551,-0.068969727
50.4245,-0.035400391,-0.043640137
50.425,-0.007324219,-0.026550293
50.4255,0.003967285,-0.014038086
50.426,0.01373291,-0.007019043
50.4265,0.029296875,0.000915527
50.427,0.048522949,0.012207031
50.4275,0.06652832,0.023193359
50.428,0.088500977,0.038146973
50.4285,0.117797852,0.058288574
50.429,0.109863281,0.065612793
50.4295,0.094909668,0.058898926
50.43,0.110168457,0.060119629
50.4305,0.142822266,0.084838867
50.431,0.127563477,0.08972168
50.4315,0.115661621,0.086364746
50.432,0.116577148,0.087585449
50.4325,0.109863281,0.088806152
50.433,0.093383789,0.083312988
50.4335,0.082397461,0.079345703
50.434,0.056152344,0.065002441
50.4345,0.021972656,0.046386719
50.435,-0.003662109,0.029907227
50.4355,-0.017089844,0.013427734
50.436,-0.027770996,0.00793457
50.4365,-0.045776367,-0.00213623
50.437,-0.064697266,-0.018615723
50.4375,-0.079345703,-0.029296875
50.438,-0.102844238,-0.043640137
50.4385,-0.127258301,-0.06072998
50.439,-0.123291016,-0.06652832
50.4395,-0.104064941,-0.060424805
50.44,-0.116271973,-0.06652832
50.4405,-0.149230957,-0.097351074
50.441,-0.137023926,-0.10925293
50.4415,-0.125732422,-0.107116699
50.442,-0.124206543,-0.107421875
50.4425,-0.112915039,-0.104064941
50.443,-0.098571777,-0.096435547
50.4435,-0.088195801,-0.093383789
50.444,-0.061035156,-0.078125
50.4445,-0.025024414,-0.048828125
50.445,0.000305176,-0.028076172
50.4455,0.011901855,-0.014038086
50.446,0.019836426,-0.004272461
50.4465,0.033874512,0.008544922
50.447,0.057678223,0.022888184
50.4475,0.074157715,0.033874512
50.448,0.09765625,0.048828125
50.4485,0.123901367,0.070800781
50.449,0.117797852,0.079040527
50.4495,0.103149414,0.077209473
50.45,0.115661621,0.085144043
50.4505,0.153808594,0.113830566
50.451,0.140075684,0.114135742
50.4515,0.127258301,0.105285645
50.452,0.127563477,0.101928711
50.4525,0.118713379,0.098266602
50.453,0.101318359,0.086975098
50.4535,0.089111328,0.078125
50.454,0.065307617,0.063171387
50.4545,0.032348633,0.043334961
50.455,0.003051758,0.024108887
50.4555,-0.006713867,0.01373291
50.456,-0.013427734,0.010070801
50.4565,-0.035095215,-0.004882813
50.457,-0.054016113,-0.022583008
50.4575,-0.068359375,-0.037536621
50.458,-0.094299316,-0.057067871
50.4585,-0.121154785,-0.082092285
50.459,-0.115356445,-0.090026855
50.4595,-0.098266602,-0.079956055
50.46,-0.110473633,-0.078125
50.4605,-0.144348145,-0.102539063
50.461,-0.130615234,-0.103759766
50.4615,-0.122680664,-0.101013184
50.462,-0.122070313,-0.101318359
50.4625,-0.112915039,-0.103759766
50.463,-0.095214844,-0.098571777
50.4635,-0.086364746,-0.093994141
50.464,-0.061645508,-0.082702637
50.4645,-0.024108887,-0.060424805
50.465,-0.00213623,-0.042419434
50.4655,0.013427734,-0.026550293
50.466,0.021362305,-0.01739502
50.4665,0.036315918,-0.00579834
50.467,0.056762695,0.010986328
50.4675,0.075073242,0.026550293
50.468,0.099487305,0.043334961
50.4685,0.124511719,0.067138672
50.469,0.118103027,0.077819824
50.4695,0.101928711,0.072937012
50.47,0.111694336,0.075683594
50.4705,0.148010254,0.100402832
50.471,0.13092041,0.10345459
50.4715,0.118713379,0.098571777
50.472,0.120544434,0.101318359
50.4725,0.112304688,0.104064941
50.473,0.096435547,0.097045898
50.4735,0.083007813,0.095214844
50.474,0.060424805,0.083618164
50.4745,0.027160645,0.067443848
50.475,-0.001525879,0.045776367
50.4755,-0.010070801,0.032043457
50.476,-0.022888184,0.022583008
50.4765,-0.040283203,0.011291504
50.477,-0.05859375,-0.003662109
50.4775,-0.07232666,-0.016479492
50.478,-0.09765625,-0.038452148
50.4785,-0.126953125,-0.068664551
50.479,-0.120849609,-0.08026123
50.4795,-0.102233887,-0.077209473
50.48,-0.112304688,-0.084838867
50.4805,-0.147705078,-0.113525391
50.481,-0.13458252,-0.118713379
50.4815,-0.12512207,-0.11138916
50.482,-0.127258301,-0.111999512
50.4825,-0.117797852,-0.108032227
50.483,-0.102539063,-0.094909668
50.4835,-0.09185791,-0.086669922
50.484,-0.068054199,-0.069580078
50.4845,-0.031738281,-0.048217773
50.485,-0.008239746,-0.028686523
50.4855,0.007629395,-0.008850098
50.486,0.016479492,0.002746582
50.4865,0.032958984,0.021362305
50.487,0.055236816,0.045776367
50.4875,0.07232666,0.062561035
50.488,0.095214844,0.079040527
50.4885,0.123901367,0.100402832
50.489,0.115661621,0.10345459
50.4895,0.100402832,0.095214844
50.49,0.111694336,0.096130371
50.4905,0.148620605,0.117492676
50.491,0.133666992,0.113525391
50.4915,0.124206543,0.103759766
50.492,0.12298584,0.100402832
50.4925,0.114135742,0.097351074
50.493,0.09765625,0.08605957
50.4935,0.084533691,0.082397461
50.494,0.059814453,0.067138672
50.4945,0.026245117,0.046691895
50.495,-0.001525879,0.024108887
50.4955,-0.012512207,0.012512207
50.496,-0.024108887,0.007019043
50.4965,-0.040893555,-0.006408691
50.497,-0.058288574,-0.02166748
50.4975,-0.073852539,-0.03692627
50.498,-0.102539063,-0.054931641
50.4985,-0.130310059,-0.077209473
50.499,-0.123596191,-0.086975098
50.4995,-0.105285645,-0.079956055
50.5,-0.114746094,-0.082092285
50.5005,-0.148925781,-0.111083984
50.501,-0.134887695,-0.11932373
50.5015,-0.122375488,-0.117797852
50.502,-0.122680664,-0.116882324
50.5025,-0.110473633,-0.10925293
50.503,-0.095214844,-0.094299316
50.5035,-0.088806152,-0.086975098
50.504,-0.06439209,-0.071411133
50.5045,-0.027770996,-0.043640137
50.505,-0.002746582,-0.026855469
50.5055,0.011291504,-0.009460449
50.506,0.015869141,-0.003967285
50.5065,0.03326416,0.007019043
50.507,0.054931641,0.023193359
50.5075,0.071411133,0.034484863
50.508,0.095214844,0.047302246
50.5085,0.122680664,0.069580078
50.509,0.116882324,0.079956055
50.5095,0.100402832,0.077514648
50.51,0.113830566,0.079040527
50.5105,0.149230957,0.09979248
50.511,0.136108398,0.100402832
50.5115,0.124511719,0.09552002
50.512,0.127258301,0.096740723
50.5125,0.117797852,0.098266602
50.513,0.100402832,0.090942383
50.5135,0.086364746,0.088195801
50.514,0.062255859,0.076904297
50.5145,0.028381348,0.05279541
50.515,-0.001220703,0.029296875
50.5155,-0.010986328,0.010070801
50.516,-0.023498535,-0.000915527
50.5165,-0.04119873,-0.014343262
50.517,-0.059509277,-0.029602051
50.5175,-0.074768066,-0.043945313
50.518,-0.100402832,-0.061035156
50.5185,-0.127258301,-0.081481934
50.519,-0.123291016,-0.088806152
50.5195,-0.107727051,-0.081787109
50.52,-0.119018555,-0.081787109
50.5205,-0.153503418,-0.106506348
50.521,-0.138549805,-0.108337402
50.5215,-0.128479004,-0.105285645
50.522,-0.127868652,-0.102233887
50.5225,-0.1171875,-0.100708008
50.523,-0.101623535,-0.091247559
50.5235,-0.093078613,-0.081176758
50.524,-0.067443848,-0.064697266
50.5245,-0.030212402,-0.042419434
50.525,-0.006408691,-0.024719238
50.5255,0.010681152,-0.011291504
50.526,0.014343262,-0.006103516
50.5265,0.030212402,0.004272461
50.527,0.054016113,0.018920898
50.5275,0.07232666,0.033569336
50.528,0.096130371,0.057067871
50.5285,0.124206543,0.085754395
50.529,0.116882324,0.098876953
50.5295,0.100708008,0.093688965
50.53,0.112304688,0.097351074
50.5305,0.145568848,0.122375488
50.531,0.130615234,0.121154785
50.5315,0.119018555,0.111999512
50.532,0.119628906,0.111083984
50.5325,0.110473633,0.112304688
50.533,0.092468262,0.10559082
50.5335,0.079040527,0.100708008
50.534,0.055847168,0.086669922
50.5345,0.023193359,0.061340332
50.535,-0.00579834,0.040283203
50.5355,-0.016174316,0.025634766
50.536,-0.028686523,0.014343262
50.5365,-0.04486084,-0.002746582
50.537,-0.062255859,-0.022277832
50.5375,-0.074462891,-0.033874512
50.538,-0.09979248,-0.051879883
50.5385,-0.127258301,-0.075683594
50.539,-0.121765137,-0.087890625
50.5395,-0.105895996,-0.082702637
50.54,-0.116271973,-0.08605957
50.5405,-0.149230957,-0.110778809
50.541,-0.137023926,-0.113220215
50.5415,-0.125427246,-0.10925293
50.542,-0.126953125,-0.111083984
50.5425,-0.116882324,-0.108947754
50.543,-0.097351074,-0.097045898
50.5435,-0.08605957,-0.08605957
50.544,-0.061645508,-0.06652832
50.5445,-0.027160645,-0.038146973
50.545,-0.000610352,-0.016174316
50.5455,0.012512207,-0.000915527
50.546,0.01953125,0.004272461
50.5465,0.033569336,0.012817383
50.547,0.056762695,0.024414063
50.5475,0.072631836,0.03692627
50.548,0.098876953,0.050354004
50.5485,0.124816895,0.070800781
50.549,0.119628906,0.07598877
50.5495,0.10559082,0.072937012
50.55,0.114135742,0.081176758
50.5505,0.149841309,0.111083984
50.551,0.134277344,0.116882324
50.5515,0.120239258,0.114746094
50.552,0.121765137,0.120849609
50.5525,0.114135742,0.12512207
50.553,0.098266602,0.118713379
50.5535,0.08392334,0.113220215
50.554,0.059509277,0.096435547
50.5545,0.026245117,0.070800781
50.555,-0.000610352,0.047302246
50.5555,-0.010986328,0.029907227
50.556,-0.025024414,0.014648438
50.5565,-0.043640137,-0.00579834
50.557,-0.061340332,-0.032958984
50.5575,-0.075378418,-0.052185059
50.558,-0.097961426,-0.069885254
50.5585,-0.126953125,-0.086364746
50.559,-0.122070313,-0.087280273
50.5595,-0.105895996,-0.075683594
50.56,-0.115661621,-0.074462891
50.5605,-0.15045166,-0.098571777
50.561,-0.138549805,-0.104675293
50.5615,-0.126342773,-0.098571777
50.562,-0.123901367,-0.098266602
50.5625,-0.11505127,-0.097961426
50.563,-0.098571777,-0.086975098
50.5635,-0.089416504,-0.079345703
50.564,-0.06652832,-0.067443848
50.5645,-0.030212402,-0.047607422
50.565,-0.003967285,-0.036315918
50.5655,0.010986328,-0.024108887
50.566,0.020141602,-0.022888184
50.5665,0.032653809,-0.012207031
50.567,0.05279541,0.003051758
50.5675,0.070495605,0.017089844
50.568,0.092773438,0.033874512
50.5685,0.121765137,0.060119629
50.569,0.118103027,0.072021484
50.5695,0.102233887,0.067138672
50.57,0.111694336,0.069274902
50.5705,0.145874023,0.097351074
50.571,0.134887695,0.100097656
50.5715,0.122375488,0.093688965
50.572,0.12512207,0.093383789
50.5725,0.116577148,0.094299316
50.573,0.097961426,0.092773438
50.5735,0.086669922,0.090026855
50.574,0.061340332,0.074768066
50.5745,0.028381348,0.055236816
50.575,-0.000915527,0.03692627
50.5755,-0.013427734,0.026550293
50.576,-0.023193359,0.01953125
50.5765,-0.043640137,0.00579834
50.577,-0.063476563,-0.015258789
50.5775,-0.079040527,-0.033874512
50.578,-0.101318359,-0.059509277
50.5785,-0.129699707,-0.089111328
50.579,-0.126037598,-0.099182129
50.5795,-0.106201172,-0.094299316
50.58,-0.116271973,-0.095825195
50.5805,-0.153503418,-0.119018555
50.581,-0.139465332,-0.124206543
50.5815,-0.128479004,-0.115356445
50.582,-0.126342773,-0.111694336
50.5825,-0.119934082,-0.109558105
50.583,-0.102539063,-0.101013184
50.5835,-0.093078613,-0.094909668
50.584,-0.068664551,-0.080566406
50.5845,-0.032653809,-0.056152344
50.585,-0.007019043,-0.034790039
50.5855,0.006408691,-0.018005371
50.586,0.015869141,-0.012512207
50.5865,0.028076172,-0.001220703
50.587,0.051574707,0.014953613
50.5875,0.068664551,0.031738281
50.588,0.090942383,0.054321289
50.5885,0.116577148,0.081481934
50.589,0.113220215,0.093383789
50.5895,0.097351074,0.093383789
50.59,0.108642578,0.096740723
50.5905,0.145874023,0.122070313
50.591,0.131530762,0.124816895
50.5915,0.119934082,0.116882324
50.592,0.1171875,0.112304688
50.5925,0.108032227,0.108337402
50.593,0.092468262,0.096435547
50.5935,0.080871582,0.088500977
50.594,0.057983398,0.071105957
50.5945,0.027160645,0.046081543
50.595,0.001831055,0.024414063
50.5955,-0.014343262,0.009460449
50.596,-0.020751953,0.00579834
50.5965,-0.042419434,-0.00793457
50.597,-0.06072998,-0.021972656
50.5975,-0.074157715,-0.031433105
50.598,-0.098571777,-0.046081543
50.5985,-0.129089355,-0.069885254
50.599,-0.12512207,-0.081481934
50.5995,-0.106506348,-0.076904297
50.6,-0.114746094,-0.083007813
50.6005,-0.151672363,-0.113220215
50.601,-0.140075684,-0.122070313
50.6015,-0.127563477,-0.11932373
50.602,-0.130310059,-0.122680664
50.6025,-0.119628906,-0.118713379
50.603,-0.101013184,-0.104064941
50.6035,-0.090637207,-0.094604492
50.604,-0.067138672,-0.076293945
50.6045,-0.031433105,-0.050354004
50.605,-0.001220703,-0.028381348
50.6055,0.010681152,-0.012817383
50.606,0.019836426,-0.003662109
50.6065,0.034179688,0.00579834
50.607,0.057983398,0.021972656
50.6075,0.072631836,0.037536621
50.608,0.097045898,0.052185059
50.6085,0.12298584,0.077209473
50.609,0.118103027,0.089111328
50.6095,0.101928711,0.08605957
50.61,0.111999512,0.086669922
50.6105,0.149230957,0.109863281
50.611,0.132751465,0.112304688
50.6115,0.119018555,0.105895996
50.612,0.121154785,0.104675293
50.6125,0.11138916,0.102844238
50.613,0.095214844,0.09185791
50.6135,0.082397461,0.082702637
50.614,0.059509277,0.071105957
50.6145,0.028076172,0.052185059
50.615,0.000305176,0.035095215
50.6155,-0.015258789,0.02166748
50.616,-0.021057129,0.019226074
50.6165,-0.042419434,0.003967285
50.617,-0.062255859,-0.01373291
50.6175,-0.078735352,-0.031738281
50.618,-0.100708008,-0.053100586
50.6185,-0.130310059,-0.082092285
50.619,-0.12512207,-0.093688965
50.6195,-0.105285645,-0.090026855
50.62,-0.113525391,-0.097961426
50.6205,-0.149841309,-0.12512207
50.621,-0.139770508,-0.129089355
50.6215,-0.128173828,-0.122680664
50.622,-0.126342773,-0.119934082
50.6225,-0.118103027,-0.113525391
50.623,-0.101318359,-0.096435547
50.6235,-0.092773438,-0.08605957
50.624,-0.071105957,-0.072631836
50.6245,-0.033569336,-0.048217773
50.625,-0.003662109,-0.031738281
50.6255,0.009155273,-0.017089844
50.626,0.016174316,-0.009155273
50.6265,0.030517578,-0.000915527
50.627,0.05279541,0.015869141
50.6275,0.071105957,0.032043457
50.628,0.095214844,0.050354004
50.6285,0.122070313,0.074462891
50.629,0.118103027,0.083007813
50.6295,0.100708008,0.07598877
50.63,0.111083984,0.077819824
50.6305,0.147705078,0.101318359
50.631,0.135498047,0.104370117
50.6315,0.123596191,0.100402832
50.632,0.123291016,0.09979248
50.6325,0.1171875,0.100402832
50.633,0.097351074,0.093078613
50.6335,0.086975098,0.086975098
50.634,0.06072998,0.074768066
50.6345,0.026855469,0.05645752
50.635,0.002441406,0.041809082
50.6355,-0.012512207,0.028686523
50.636,-0.021057129,0.020141602
50.6365,-0.04119873,0.00579834
50.637,-0.05859375,-0.010375977
50.6375,-0.074462891,-0.023498535
50.638,-0.096435547,-0.042114258
50.6385,-0.125732422,-0.072631836
50.639,-0.12298584,-0.08972168
50.6395,-0.104064941,-0.088195801
50.64,-0.113830566,-0.093688965
50.6405,-0.149841309,-0.117797852
50.641,-0.137023926,-0.121154785
50.6415,-0.121459961,-0.115356445
50.642,-0.120239258,-0.11505127
50.6425,-0.112609863,-0.114440918
50.643,-0.096740723,-0.103149414
50.6435,-0.088195801,-0.097961426
50.644,-0.065307617,-0.085144043
50.6445,-0.030822754,-0.060119629
50.645,-0.001831055,-0.034790039
50.6455,0.012512207,-0.010986328
50.646,0.021057129,0.005187988
50.6465,0.037536621,0.025634766
50.647,0.058288574,0.048828125
50.6475,0.074157715,0.065917969
50.648,0.09979248,0.083312988
50.6485,0.128479004,0.102233887
50.649,0.123901367,0.096130371
50.6495,0.10559082,0.077514648
50.65,0.115356445,0.069274902
50.6505,0.152587891,0.092163086
50.651,0.13885498,0.090637207
50.6515,0.127868652,0.078735352
50.652,0.125427246,0.071716309
50.6525,0.117797852,0.073547363
50.653,0.100402832,0.068969727
50.6535,0.089416504,0.065612793
50.654,0.065002441,0.056152344
50.6545,0.032653809,0.040588379
50.655,0.002746582,0.024108887
50.6555,-0.010681152,0.013427734
50.656,-0.01739502,0.00579834
50.6565,-0.0390625,-0.010070801
50.657,-0.057678223,-0.030822754
50.6575,-0.069885254,-0.043334961
50.658,-0.094299316,-0.059509277
50.6585,-0.123291016,-0.085144043
50.659,-0.119018555,-0.093078613
50.6595,-0.102539063,-0.085144043
50.66,-0.110473633,-0.085144043
50.6605,-0.147705078,-0.114135742
50.661,-0.13671875,-0.121459961
50.6615,-0.126647949,-0.118103027
50.662,-0.124816895,-0.122680664
50.6625,-0.115661621,-0.119018555
50.663,-0.096435547,-0.110778809
50.6635,-0.086975098,-0.105285645
50.664,-0.066223145,-0.091247559
50.6645,-0.028076172,-0.067443848
50.665,-0.002746582,-0.046081543
50.6655,0.011291504,-0.026245117
50.666,0.015563965,-0.014648438
50.6665,0.030212402,-0.004882813
50.667,0.051879883,0.016784668
50.6675,0.068359375,0.040283203
50.668,0.091247559,0.06072998
50.6685,0.122070313,0.086669922
50.669,0.116577148,0.098876953
50.6695,0.102539063,0.09552002
50.67,0.111694336,0.09765625
50.6705,0.151062012,0.126953125
50.671,0.137939453,0.133056641
50.6715,0.12512207,0.126342773
50.672,0.12512207,0.12512207
50.6725,0.115966797,0.123291016
50.673,0.098266602,0.112609863
50.6735,0.086975098,0.104064941
50.674,0.063171387,0.087280273
50.6745,0.030822754,0.061035156
50.675,0.001220703,0.0390625
50.6755,-0.011901855,0.024719238
50.676,-0.021362305,0.019226074
50.6765,-0.043029785,0.003051758
50.677,-0.061950684,-0.01373291
50.6775,-0.07232666,-0.028381348
50.678,-0.096740723,-0.049133301
50.6785,-0.126647949,-0.077209473
50.679,-0.123901367,-0.087280273
50.6795,-0.105895996,-0.084228516
50.68,-0.114135742,-0.088806152
50.6805,-0.151367188,-0.114746094
50.681,-0.139770508,-0.124816895
50.6815,-0.124206543,-0.125732422
50.682,-0.124816895,-0.12878418
50.6825,-0.115661621,-0.125427246
50.683,-0.101013184,-0.108947754
50.6835,-0.091552734,-0.100097656
50.684,-0.067138672,-0.08392334
50.6845,-0.030822754,-0.060119629
50.685,-0.00579834,-0.038757324
50.6855,0.014648438,-0.019836426
50.686,0.019836426,-0.015258789
50.6865,0.033874512,-0.004882813
50.687,0.052490234,0.010375977
50.6875,0.068664551,0.025939941
50.688,0.090942383,0.046691895
50.6885,0.11932373,0.076599121
50.689,0.116577148,0.089416504
50.6895,0.09979248,0.082702637
50.69,0.108947754,0.084533691
50.6905,0.144958496,0.11138916
50.691,0.132751465,0.113525391
50.6915,0.121154785,0.108947754
50.692,0.121154785,0.111694336
50.6925,0.112915039,0.111083984
50.693,0.095825195,0.09765625
50.6935,0.084533691,0.085449219
50.694,0.05859375,0.069885254
50.6945,0.025634766,0.046386719
50.695,0.000305176,0.029602051
50.6955,-0.010375977,0.016479492
50.696,-0.021972656,0.008850098
50.6965,-0.037841797,-0.001525879
50.697,-0.055541992,-0.018920898
50.6975,-0.069580078,-0.032348633
50.698,-0.096130371,-0.051574707
50.6985,-0.12512207,-0.079956055
50.699,-0.123901367,-0.094909668
50.6995,-0.102539063,-0.090942383
50.7,-0.111083984,-0.095825195
50.7005,-0.14831543,-0.122680664
50.701,-0.134887695,-0.127563477
50.7015,-0.121459961,-0.117492676
50.702,-0.123901367,-0.11138916
50.7025,-0.116882324,-0.106811523
50.703,-0.09765625,-0.093994141
50.7035,-0.088195801,-0.087890625
50.704,-0.061340332,-0.074157715
50.7045,-0.023498535,-0.049438477
50.705,-0.000915527,-0.030212402
50.7055,0.015869141,-0.01159668
50.706,0.021362305,-0.003356934
50.7065,0.03692627,0.01159668
50.707,0.056762695,0.030517578
50.7075,0.072631836,0.047302246
50.708,0.094604492,0.065307617
50.7085,0.122680664,0.088195801
50.709,0.11932373,0.093078613
50.7095,0.103149414,0.08392334
50.71,0.113220215,0.08392334
50.7105,0.149536133,0.106811523
50.711,0.138549805,0.108947754
50.7115,0.123901367,0.101928711
50.712,0.122680664,0.102233887
50.7125,0.118713379,0.106201172
50.713,0.099487305,0.096435547
50.7135,0.088195801,0.093688965
50.714,0.06439209,0.082702637
50.7145,0.029602051,0.066223145
50.715,-0.000610352,0.047607422
50.7155,-0.012207031,0.032348633
50.716,-0.02166748,0.018005371
50.7165,-0.038146973,-0.003051758
50.717,-0.058898926,-0.024108887
50.7175,-0.070495605,-0.037536621
50.718,-0.095214844,-0.059509277
50.7185,-0.124511719,-0.090637207
50.719,-0.122070313,-0.107116699
50.7195,-0.106201172,-0.101623535
50.72,-0.114746094,-0.098876953
50.7205,-0.151062012,-0.120849609
50.721,-0.138549805,-0.125732422
50.7215,-0.127258301,-0.114440918
50.722,-0.127868652,-0.106811523
50.7225,-0.119934082,-0.100402832
50.723,-0.102539063,-0.092468262
50.7235,-0.09185791,-0.092468262
50.724,-0.067749023,-0.085144043
50.7245,-0.03112793,-0.063781738
50.725,-0.005493164,-0.046386719
50.7255,0.012512207,-0.029602051
50.726,0.016784668,-0.023498535
50.7265,0.034179688,-0.011901855
50.727,0.055541992,0.005493164
50.7275,0.070495605,0.025939941
50.728,0.09185791,0.046386719
50.7285,0.121154785,0.074768066
50.729,0.115966797,0.088806152
50.7295,0.101013184,0.086364746
50.73,0.108642578,0.090026855
50.7305,0.149841309,0.116271973
50.731,0.137634277,0.12512207
50.7315,0.123291016,0.123291016
50.732,0.123291016,0.127258301
50.7325,0.114440918,0.125427246
50.733,0.097351074,0.116271973
50.7335,0.085754395,0.108642578
50.734,0.064086914,0.08972168
50.7345,0.031433105,0.063781738
50.735,0.004882813,0.0390625
50.7355,-0.010070801,0.020141602
50.736,-0.019836426,0.007324219
50.7365,-0.036621094,-0.009460449
50.737,-0.054626465,-0.030517578
50.7375,-0.068664551,-0.04699707
50.738,-0.093688965,-0.062866211
50.7385,-0.122375488,-0.089111328
50.739,-0.119628906,-0.098266602
50.7395,-0.103149414,-0.088806152
50.74,-0.110778809,-0.086364746
50.7405,-0.147705078,-0.106201172
50.741,-0.137939453,-0.107421875
50.7415,-0.124206543,-0.102233887
50.742,-0.123596191,-0.104980469
50.7425,-0.113525391,-0.103759766
50.743,-0.096130371,-0.09552002
50.7435,-0.086364746,-0.087890625
50.744,-0.06439209,-0.07232666
50.7445,-0.029296875,-0.044555664
50.745,-0.003356934,-0.018005371
50.7455,0.012207031,0.004577637
50.746,0.020141602,0.021972656
50.7465,0.033874512,0.036621094
50.747,0.055541992,0.055236816
50.7475,0.075683594,0.068359375
50.748,0.097961426,0.086669922
50.7485,0.127258301,0.108642578
50.749,0.124206543,0.115661621
50.7495,0.10559082,0.099487305
50.75,0.111999512,0.088500977
50.7505,0.147399902,0.105285645
50.751,0.13458252,0.102233887
50.7515,0.122375488,0.088806152
50.752,0.122375488,0.088195801
50.7525,0.114440918,0.088195801
50.753,0.09765625,0.081481934
50.7535,0.087280273,0.079345703
50.754,0.06439209,0.067443848
50.7545,0.032348633,0.048828125
50.755,0.006103516,0.031738281
50.7555,-0.012207031,0.012817383
50.756,-0.018615723,0.004272461
50.7565,-0.036621094,-0.008239746
50.757,-0.057067871,-0.023193359
50.7575,-0.07019043,-0.032958984
50.758,-0.094299316,-0.041809082
50.7585,-0.12512207,-0.064697266
50.759,-0.123291016,-0.075683594
50.7595,-0.106506348,-0.07232666
50.76,-0.111083984,-0.079040527
50.7605,-0.145874023,-0.109558105
50.761,-0.134887695,-0.113220215
50.7615,-0.122680664,-0.108337402
50.762,-0.122070313,-0.111083984
50.7625,-0.113220215,-0.113830566
50.763,-0.09552002,-0.104370117
50.7635,-0.089111328,-0.101318359
50.764,-0.065307617,-0.088500977
50.7645,-0.026550293,-0.063476563
50.765,-0.003967285,-0.04119873
50.7655,0.012817383,-0.015869141
50.766,0.021057129,-0.005493164
50.7665,0.033874512,0.005493164
50.767,0.055236816,0.021057129
50.7675,0.073547363,0.035095215
50.768,0.093383789,0.048828125
50.7685,0.120849609,0.07019043
50.769,0.117492676,0.078735352
50.7695,0.102844238,0.069580078
50.77,0.110473633,0.069580078
50.7705,0.150146484,0.097045898
50.771,0.137939453,0.104980469
50.7715,0.122070313,0.09979248
50.772,0.121459961,0.102844238
50.7725,0.1171875,0.104064941
50.773,0.100402832,0.093383789
50.7735,0.088500977,0.087890625
50.774,0.06439209,0.075683594
50.7745,0.031738281,0.055847168
50.775,0.006713867,0.040588379
50.7755,-0.014648438,0.024108887
50.776,-0.017089844,0.018310547
50.7765,-0.033569336,0.006713867
50.777,-0.052490234,-0.00793457
50.7775,-0.066223145,-0.020141602
50.778,-0.095214844,-0.043334961
50.7785,-0.123596191,-0.074768066
50.779,-0.118713379,-0.087280273
50.7795,-0.101013184,-0.08026123
50.78,-0.10559082,-0.079040527
50.7805,-0.143737793,-0.102539063
50.781,-0.132141113,-0.106506348
50.7815,-0.118408203,-0.098266602
50.782,-0.121154785,-0.090942383
50.7825,-0.114440918,-0.083618164
50.783,-0.094909668,-0.069274902
50.7835,-0.084228516,-0.06072998
50.784,-0.061340332,-0.047607422
50.7845,-0.025024414,-0.023498535
50.785,-0.001525879,-0.008239746
50.7855,0.016479492,0.005493164
50.786,0.021057129,0.007019043
50.7865,0.032653809,0.006713867
50.787,0.057983398,0.021057129
50.7875,0.075683594,0.030822754
50.788,0.098266602,0.042419434
50.7885,0.124816895,0.063171387
50.789,0.12298584,0.068054199
50.7895,0.10925293,0.062561035
50.79,0.115356445,0.063781738
50.7905,0.151977539,0.091247559
50.791,0.139465332,0.100708008
50.7915,0.126037598,0.103149414
50.792,0.125427246,0.110778809
50.7925,0.119628906,0.113220215
50.793,0.099487305,0.102844238
50.7935,0.086975098,0.096740723
50.794,0.065612793,0.079040527
50.7945,0.033874512,0.057067871
50.795,0.006713867,0.043640137
50.7955,-0.010070801,0.030212402
50.796,-0.013122559,0.023498535
50.7965,-0.032653809,0.003662109
50.797,-0.052185059,-0.021057129
50.7975,-0.067443848,-0.03692627
50.798,-0.089111328,-0.053100586
50.7985,-0.120849609,-0.078735352
50.799,-0.119628906,-0.08972168
50.7995,-0.101928711,-0.089111328
50.8,-0.108642578,-0.092468262
50.8005,-0.146179199,-0.121765137
50.801,-0.134277344,-0.130310059
50.8015,-0.120849609,-0.126037598
50.802,-0.120239258,-0.126647949
50.8025,-0.110778809,-0.126342773
50.803,-0.092773438,-0.114746094
50.8035,-0.087585449,-0.104370117
50.804,-0.065917969,-0.085754395
50.8045,-0.03112793,-0.057983398
50.805,-0.003356934,-0.029602051
50.8055,0.016479492,-0.002746582
50.806,0.01953125,0.010375977
50.8065,0.033874512,0.02532959
50.807,0.055541992,0.039367676
50.8075,0.071716309,0.050048828
50.808,0.093078613,0.063781738
50.8085,0.119934082,0.083618164
50.809,0.116882324,0.091552734
50.8095,0.098876953,0.080871582
50.81,0.105895996,0.081176758
50.8105,0.146179199,0.108947754
50.811,0.133972168,0.118103027
50.8115,0.121765137,0.113220215
50.812,0.121154785,0.113830566
50.8125,0.11505127,0.112915039
50.813,0.096435547,0.101013184
50.8135,0.08605957,0.094299316
50.814,0.061950684,0.079956055
50.8145,0.028686523,0.058288574
50.815,0.000915527,0.04119873
50.8155,-0.012817383,0.023803711
50.816,-0.01953125,0.01739502
50.8165,-0.039367676,0.000610352
50.817,-0.059204102,-0.015258789
50.8175,-0.074462891,-0.023193359
50.818,-0.096130371,-0.039367676
50.8185,-0.124206543,-0.063781738
50.819,-0.120849609,-0.078735352
50.8195,-0.10345459,-0.078125
50.82,-0.111083984,-0.08392334
50.8205,-0.146179199,-0.112915039
50.821,-0.138244629,-0.121765137
50.8215,-0.126342773,-0.120849609
50.822,-0.124816895,-0.118713379
50.8225,-0.116271973,-0.116882324
50.823,-0.100708008,-0.104675293
50.8235,-0.094299316,-0.096740723
50.824,-0.070800781,-0.081176758
50.8245,-0.034790039,-0.056152344
50.825,-0.009765625,-0.035095215
50.8255,0.009155273,-0.016784668
50.826,0.01159668,-0.010681152
50.8265,0.025634766,-0.000610352
50.827,0.047607422,0.015258789
50.8275,0.06439209,0.02746582
50.828,0.086975098,0.042724609
50.8285,0.116882324,0.068054199
50.829,0.116882324,0.076904297
50.8295,0.101623535,0.06439209
50.83,0.108032227,0.061035156
50.8305,0.148925781,0.085754395
50.831,0.137023926,0.093383789
50.8315,0.12298584,0.087890625
50.832,0.123596191,0.088500977
50.8325,0.116577148,0.085754395
50.833,0.09979248,0.078125
50.8335,0.086669922,0.074462891
50.834,0.064697266,0.064086914
50.8345,0.032043457,0.046386719
50.835,0.005493164,0.031433105
50.8355,-0.010070801,0.020446777
50.836,-0.018615723,0.019226074
50.8365,-0.03692627,0.006103516
50.837,-0.057373047,-0.012207031
50.8375,-0.071105957,-0.024108887
50.838,-0.096740723,-0.038452148
50.8385,-0.124206543,-0.065002441
50.839,-0.123291016,-0.076293945
50.8395,-0.104980469,-0.076293945
50.84,-0.111083984,-0.083007813
50.8405,-0.151367188,-0.110168457
50.841,-0.141906738,-0.119934082
50.8415,-0.126953125,-0.119628906
50.842,-0.12878418,-0.119628906
50.8425,-0.119018555,-0.121154785
50.843,-0.101623535,-0.107116699
50.8435,-0.092163086,-0.099182129
50.844,-0.070495605,-0.08392334
50.8445,-0.032653809,-0.059509277
50.845,-0.007324219,-0.039367676
50.8455,0.014343262,-0.018920898
50.846,0.018310547,-0.013122559
50.8465,0.034790039,-0.000915527
50.847,0.054321289,0.015258789
50.8475,0.072937012,0.02746582
50.848,0.097351074,0.046691895
50.8485,0.126037598,0.072631836
50.849,0.123291016,0.081787109
50.8495,0.106201172,0.077819824
50.85,0.111999512,0.083007813
50.8505,0.151367188,0.112915039
50.851,0.141296387,0.118713379
50.8515,0.127258301,0.110778809
50.852,0.12512207,0.110778809
50.8525,0.11932373,0.109863281
50.853,0.101013184,0.101928711
50.8535,0.088500977,0.096740723
50.854,0.067138672,0.084838867
50.8545,0.033874512,0.061340332
50.855,0.004882813,0.041809082
50.8555,-0.009765625,0.023193359
50.856,-0.019226074,0.014343262
50.8565,-0.037536621,-0.000305176
50.857,-0.05645752,-0.014648438
50.8575,-0.068664551,-0.027770996
50.858,-0.093383789,-0.046081543
50.8585,-0.125732422,-0.074768066
50.859,-0.125427246,-0.085144043
50.8595,-0.10559082,-0.082092285
50.86,-0.113220215,-0.082397461
50.8605,-0.150756836,-0.10925293
50.861,-0.139770508,-0.11505127
50.8615,-0.125427246,-0.108947754
50.862,-0.124206543,-0.110778809
50.8625,-0.115661621,-0.111999512
50.863,-0.098266602,-0.106811523
50.8635,-0.089111328,-0.102233887
50.864,-0.067443848,-0.087280273
50.8645,-0.030212402,-0.062255859
50.865,-0.004577637,-0.046386719
50.8655,0.014038086,-0.026245117
50.866,0.017700195,-0.016479492
50.8665,0.032958984,-0.000610352
50.867,0.056152344,0.026550293
50.8675,0.070495605,0.044250488
50.868,0.092468262,0.062866211
50.8685,0.120544434,0.088806152
50.869,0.11932373,0.101928711
50.8695,0.104370117,0.095214844
50.87,0.109558105,0.092773438
50.8705,0.149536133,0.116577148
50.871,0.13458252,0.116882324
50.8715,0.118408203,0.106506348
50.872,0.120544434,0.102233887
50.8725,0.115356445,0.100097656
50.873,0.096130371,0.09185791
50.8735,0.08392334,0.086364746
50.874,0.063171387,0.069885254
50.8745,0.031433105,0.044555664
50.875,0.004577637,0.021362305
50.8755,-0.011291504,0.00213623
50.876,-0.018615723,-0.005187988
50.8765,-0.039367676,-0.016479492
50.877,-0.059509277,-0.030212402
50.8775,-0.072937012,-0.043029785
50.878,-0.096130371,-0.054931641
50.8785,-0.126037598,-0.076904297
50.879,-0.124816895,-0.090332031
50.8795,-0.107421875,-0.08392334
50.88,-0.113220215,-0.084838867
50.8805,-0.153198242,-0.112304688
50.881,-0.144042969,-0.11505127
50.8815,-0.131835938,-0.10925293
50.882,-0.129089355,-0.105895996
50.8825,-0.121765137,-0.106811523
50.883,-0.102844238,-0.099487305
50.8835,-0.09185791,-0.098266602
50.884,-0.068664551,-0.086364746
50.8845,-0.033569336,-0.063781738
50.885,-0.007629395,-0.045166016
50.8855,0.009765625,-0.029602051
50.886,0.016174316,-0.021362305
50.8865,0.030212402,-0.010681152
50.887,0.052185059,0.002441406
50.8875,0.07019043,0.018615723
50.888,0.092163086,0.035095215
50.8885,0.119018555,0.059814453
50.889,0.117492676,0.071716309
50.8895,0.09979248,0.065917969
50.89,0.105285645,0.06652832
50.8905,0.144042969,0.095214844
50.891,0.131835938,0.104064941
50.8915,0.115661621,0.100097656
50.892,0.118408203,0.100097656
50.8925,0.111083984,0.099182129
50.893,0.092773438,0.092773438
50.8935,0.082092285,0.086669922
50.894,0.057678223,0.071411133
50.8945,0.026855469,0.049743652
50.895,0.001220703,0.026855469
50.8955,-0.014343262,0.008544922
50.896,-0.022277832,0.002746582
50.8965,-0.041809082,-0.007629395
50.897,-0.061950684,-0.026245117
50.8975,-0.076293945,-0.036315918
50.898,-0.095825195,-0.047302246
50.8985,-0.12512207,-0.073242188
50.899,-0.126953125,-0.084533691
50.8995,-0.109863281,-0.076599121
50.9,-0.115661621,-0.07232666
50.9005,-0.15411377,-0.096740723
50.901,-0.14251709,-0.10345459
50.9015,-0.129699707,-0.100097656
50.902,-0.131835938,-0.09765625
50.9025,-0.122375488,-0.093994141
50.903,-0.102844238,-0.08026123
50.9035,-0.094299316,-0.075683594
50.904,-0.070495605,-0.065917969
50.9045,-0.033874512,-0.04699707
50.905,-0.008239746,-0.033874512
50.9055,0.012207031,-0.016174316
50.906,0.015869141,-0.012207031
50.9065,0.034179688,-0.000610352
50.907,0.054626465,0.010986328
50.9075,0.07232666,0.023193359
50.908,0.096435547,0.036621094
50.9085,0.125427246,0.057373047
50.909,0.123901367,0.065307617
50.9095,0.108642578,0.059204102
50.91,0.115356445,0.058288574
50.9105,0.151672363,0.088500977
50.911,0.138549805,0.097351074
50.9115,0.123901367,0.095214844
50.912,0.122680664,0.093994141
50.9125,0.118713379,0.097961426
50.913,0.098266602,0.09765625
50.9135,0.086975098,0.097961426
50.914,0.064086914,0.085144043
50.9145,0.030212402,0.064086914
50.915,0.00579834,0.045776367
50.9155,-0.012512207,0.03112793
50.916,-0.01739502,0.022583008
50.9165,-0.036621094,0.008239746
50.917,-0.054931641,-0.009765625
50.9175,-0.071411133,-0.027770996
50.918,-0.096435547,-0.050964355
50.9185,-0.127258301,-0.085449219
50.919,-0.124206543,-0.101318359
50.9195,-0.105285645,-0.09765625
50.92,-0.111694336,-0.100708008
50.9205,-0.149536133,-0.125427246
50.921,-0.139160156,-0.130004883
50.9215,-0.127868652,-0.120849609
50.922,-0.125427246,-0.1171875
50.9225,-0.116577148,-0.108947754
50.923,-0.100097656,-0.095214844
50.9235,-0.090026855,-0.087585449
50.924,-0.06652832,-0.069885254
50.9245,-0.028991699,-0.036315918
50.925,-0.004882813,-0.013122559
50.9255,0.013122559,0.006408691
50.926,0.017700195,0.014648438
50.9265,0.031433105,0.022888184
50.927,0.051574707,0.030212402
50.9275,0.068969727,0.042419434
50.928,0.089416504,0.062255859
50.9285,0.116577148,0.087280273
50.929,0.114746094,0.096130371
50.9295,0.099182129,0.087890625
50.93,0.103759766,0.086975098
50.9305,0.144042969,0.104980469
50.931,0.133972168,0.100402832
50.9315,0.121154785,0.085144043
50.932,0.120544434,0.078430176
50.9325,0.115661621,0.074462891
50.933,0.099487305,0.065002441
50.9335,0.086364746,0.059204102
50.934,0.06652832,0.047302246
50.9345,0.03112793,0.027770996
50.935,0.003051758,0.009155273
50.9355,-0.01739502,-0.005493164
50.936,-0.022583008,-0.007629395
50.9365,-0.040588379,-0.016479492
50.937,-0.058898926,-0.02746582
50.9375,-0.074462891,-0.034484863
50.938,-0.098266602,-0.049438477
50.9385,-0.12878418,-0.072021484
50.939,-0.128173828,-0.089416504
50.9395,-0.109558105,-0.085754395
50.94,-0.113220215,-0.088500977
50.9405,-0.151367188,-0.114440918
50.941,-0.14251709,-0.116882324
50.9415,-0.128479004,-0.108947754
50.942,-0.12878418,-0.108642578
50.9425,-0.120849609,-0.106201172
50.943,-0.103149414,-0.098266602
50.9435,-0.093688965,-0.095214844
50.944,-0.07019043,-0.081176758
50.9445,-0.036010742,-0.05645752
50.945,-0.010986328,-0.033874512
50.9455,0.009460449,-0.016479492
50.946,0.014648438,-0.011291504
50.9465,0.028991699,-0.000305176
50.947,0.051574707,0.016479492
50.9475,0.070800781,0.032958984
50.948,0.092468262,0.053100586
50.9485,0.12298584,0.078735352
50.949,0.121459961,0.092468262
50.9495,0.105895996,0.090332031
50.95,0.110168457,0.087890625
50.9505,0.146484375,0.116271973
50.951,0.134887695,0.122375488
50.9515,0.120239258,0.10925293
50.952,0.122375488,0.10345459
50.9525,0.116882324,0.099182129
50.953,0.099487305,0.086669922
50.9535,0.087280273,0.083312988
50.954,0.061035156,0.072937012
50.9545,0.028991699,0.053405762
50.955,0.001220703,0.035095215
50.9555,-0.015869141,0.019226074
50.956,-0.018005371,0.012817383
50.9565,-0.038757324,0.000305176
50.957,-0.061340332,-0.015258789
50.9575,-0.072631836,-0.026245117
50.958,-0.097045898,-0.040893555
50.9585,-0.126953125,-0.062866211
50.959,-0.12512207,-0.073852539
50.9595,-0.10559082,-0.066223145
50.96,-0.112304688,-0.067443848
50.9605,-0.147705078,-0.090942383
50.961,-0.140075684,-0.099487305
50.9615,-0.126037598,-0.096740723
50.962,-0.125732422,-0.100097656
50.9625,-0.119018555,-0.103759766
50.963,-0.102233887,-0.101013184
50.9635,-0.094909668,-0.104675293
50.964,-0.070800781,-0.097961426
50.9645,-0.032958984,-0.080566406
50.965,-0.005187988,-0.06439209
50.9655,0.012512207,-0.043640137
50.966,0.016479492,-0.035705566
50.9665,0.030212402,-0.021972656
50.967,0.050964355,0
50.9675,0.068664551,0.018310547
50.968,0.089111328,0.039672852
50.9685,0.117797852,0.066223145
50.969,0.118103027,0.077819824
50.9695,0.103759766,0.07232666
50.97,0.109558105,0.071716309
50.9705,0.145568848,0.091552734
50.971,0.13671875,0.093383789
50.9715,0.120544434,0.08605957
50.972,0.119934082,0.088500977
50.9725,0.115661621,0.092468262
50.973,0.096130371,0.085144043
50.9735,0.08605957,0.085754395
50.974,0.061645508,0.072631836
50.9745,0.030212402,0.055847168
50.975,0.000610352,0.039367676
50.9755,-0.015869141,0.024719238
50.976,-0.020141602,0.019836426
50.9765,-0.04119873,0.003356934
50.977,-0.062255859,-0.017089844
50.9775,-0.077819824,-0.030212402
50.978,-0.098876953,-0.049133301
50.9785,-0.128479004,-0.074768066
50.979,-0.128173828,-0.087585449
50.9795,-0.110473633,-0.081481934
50.98,-0.113830566,-0.082092285
50.9805,-0.149230957,-0.106811523
50.981,-0.140380859,-0.10925293
50.9815,-0.127258301,-0.101623535
50.982,-0.126037598,-0.096130371
50.9825,-0.11932373,-0.093994141
50.983,-0.100402832,-0.087280273
50.9835,-0.089416504,-0.081176758
50.984,-0.068054199,-0.070800781
50.9845,-0.032653809,-0.050354004
50.985,-0.006713867,-0.032958984
50.9855,0.014038086,-0.013122559
50.986,0.018920898,-0.001525879
50.9865,0.032043457,0.011291504
50.987,0.05279541,0.028991699
50.9875,0.072021484,0.040893555
50.988,0.093383789,0.054321289
50.9885,0.121154785,0.071716309
50.989,0.121459961,0.08026123
50.9895,0.104675293,0.074768066
50.99,0.108947754,0.073242188
50.9905,0.146789551,0.100402832
50.991,0.136413574,0.112915039
50.9915,0.120849609,0.111999512
50.992,0.122680664,0.113220215
50.9925,0.1171875,0.113220215
50.993,0.097961426,0.104370117
50.9935,0.086975098,0.09765625
50.994,0.063781738,0.086364746
50.9945,0.030517578,0.063171387
50.995,0.003356934,0.037841797
50.9955,-0.014343262,0.017089844
50.996,-0.018615723,0.006713867
50.9965,-0.037841797,-0.004882813
50.997,-0.054931641,-0.020446777
50.9975,-0.069580078,-0.027160645
50.998,-0.092468262,-0.038146973
50.9985,-0.124206543,-0.061950684
50.999,-0.125427246,-0.075378418
50.9995,-0.108032227,-0.072937012
51,-0.113220215,-0.075683594
51.0005,-0.15045166,-0.104064941
51.001,-0.139160156,-0.111999512
51.0015,-0.127868652,-0.110168457
51.002,-0.127563477,-0.114440918
51.0025,-0.118103027,-0.116577148
51.003,-0.09765625,-0.101623535
51.0035,-0.088500977,-0.093688965
51.004,-0.066833496,-0.085754395
51.0045,-0.03112793,-0.067443848
51.005,-0.005187988,-0.049133301
51.0055,0.014953613,-0.032653809
51.006,0.018005371,-0.027770996
51.0065,0.034790039,-0.019836426
51.007,0.05645752,-0.004882813
51.0075,0.075378418,0.010070801
51.008,0.096130371,0.027160645
51.0085,0.123596191,0.054321289
51.009,0.12298584,0.069274902
51.0095,0.107116699,0.064086914
51.01,0.112609863,0.067749023
51.0105,0.152587891,0.098266602
51.011,0.14251709,0.108642578
51.0115,0.129699707,0.102233887
51.012,0.130310059,0.10345459
51.0125,0.12298584,0.107421875
51.013,0.104675293,0.098876953
51.0135,0.094604492,0.088806152
51.014,0.069885254,0.075073242
51.0145,0.036315918,0.053710938
51.015,0.006713867,0.033874512
51.0155,-0.008850098,0.017089844
51.016,-0.018310547,0.010681152
51.0165,-0.036010742,-0.006103516
51.017,-0.055847168,-0.023803711
51.0175,-0.068969727,-0.036010742
51.018,-0.089416504,-0.051574707
51.0185,-0.121154785,-0.073852539
51.019,-0.121765137,-0.079650879
51.0195,-0.102233887,-0.067138672
51.02,-0.104675293,-0.063171387
51.0205,-0.142211914,-0.085144043
51.021,-0.133056641,-0.093383789
51.0215,-0.117797852,-0.089111328
51.022,-0.117797852,-0.08972168
51.0225,-0.109863281,-0.091552734
51.023,-0.093994141,-0.08392334
51.0235,-0.086975098,-0.081481934
51.024,-0.06652832,-0.070800781
51.0245,-0.02746582,-0.052490234
51.025,-0.004577637,-0.03692627
51.0255,0.015258789,-0.021362305
51.026,0.019836426,-0.019836426
51.0265,0.03326416,-0.009765625
51.027,0.054321289,0.007629395
51.0275,0.071105957,0.024719238
51.028,0.093078613,0.042419434
51.0285,0.122375488,0.072021484
51.029,0.123901367,0.093078613
51.0295,0.105895996,0.099487305
51.03,0.111694336,0.106506348
51.0305,0.151977539,0.136413574
51.031,0.140075684,0.144958496
51.0315,0.125732422,0.133972168
51.032,0.127258301,0.132141113
51.0325,0.121459961,0.128173828
51.033,0.102844238,0.110473633
51.0335,0.090332031,0.09979248
51.034,0.067443848,0.080871582
51.0345,0.032958984,0.053710938
51.035,0.006713867,0.030822754
51.0355,-0.008850098,0.01159668
51.036,-0.018920898,0.002441406
51.0365,-0.034790039,-0.013427734
51.037,-0.053405762,-0.030212402
51.0375,-0.067138672,-0.040588379
51.038,-0.092773438,-0.054626465
51.0385,-0.123596191,-0.076293945
51.039,-0.124511719,-0.086364746
51.0395,-0.105285645,-0.083312988
51.04,-0.109863281,-0.082702637
51.0405,-0.147705078,-0.108337402
51.041,-0.137023926,-0.116271973
51.0415,-0.122680664,-0.112609863
51.042,-0.122070313,-0.114440918
51.0425,-0.113525391,-0.112609863
51.043,-0.094604492,-0.103759766
51.0435,-0.086669922,-0.09979248
51.044,-0.06439209,-0.090026855
51.0445,-0.029602051,-0.066833496
51.045,-0.001831055,-0.051879883
51.0455,0.018615723,-0.035400391
51.046,0.022888184,-0.025939941
51.0465,0.036621094,-0.014648438
51.047,0.055847168,0.004272461
51.0475,0.070495605,0.022277832
51.048,0.095214844,0.04486084
51.0485,0.125732422,0.076293945
51.049,0.127258301,0.091552734
51.0495,0.107727051,0.08972168
51.05,0.113830566,0.090942383
51.0505,0.153808594,0.116271973
51.051,0.142211914,0.124816895
51.0515,0.124816895,0.118103027
51.052,0.123901367,0.1171875
51.0525,0.117797852,0.115356445
51.053,0.099487305,0.105285645
51.0535,0.088195801,0.099487305
51.054,0.065002441,0.084228516
51.0545,0.031433105,0.057983398
51.055,0.00213623,0.036315918
51.0555,-0.012512207,0.020446777
51.056,-0.02166748,0.012817383
51.0565,-0.037231445,-0.004272461
51.057,-0.055236816,-0.02746582
51.0575,-0.068664551,-0.043334961
51.058,-0.091552734,-0.061340332
51.0585,-0.121154785,-0.088195801
51.059,-0.122680664,-0.101623535
51.0595,-0.104064941,-0.094909668
51.06,-0.107116699,-0.090637207
51.0605,-0.145874023,-0.110168457
51.061,-0.13885498,-0.110778809
51.0615,-0.125427246,-0.101928711
51.062,-0.123596191,-0.096435547
51.0625,-0.118713379,-0.092773438
51.063,-0.098876953,-0.079040527
51.0635,-0.09185791,-0.069580078
51.064,-0.069885254,-0.052490234
51.0645,-0.03326416,-0.028076172
51.065,-0.007324219,-0.007324219
51.0655,0.013427734,0.013122559
51.066,0.020141602,0.021057129
51.0665,0.031433105,0.028686523
51.067,0.054626465,0.0390625
51.0675,0.069885254,0.045166016
51.068,0.09185791,0.050964355
51.0685,0.120544434,0.068664551
51.069,0.121765137,0.073852539
51.0695,0.105285645,0.063171387
51.07,0.110778809,0.058898926
51.0705,0.149230957,0.084838867
51.071,0.139465332,0.094604492
51.0715,0.12298584,0.092468262
51.072,0.121765137,0.094299316
51.0725,0.115966797,0.098571777
51.073,0.096740723,0.090942383
51.0735,0.085754395,0.085449219
51.074,0.062866211,0.072631836
51.0745,0.031433105,0.051879883
51.075,0.003967285,0.032043457
51.0755,-0.012207031,0.012512207
51.076,-0.016784668,0.005493164
51.0765,-0.036621094,-0.005493164
51.077,-0.054016113,-0.020751953
51.0775,-0.068969727,-0.035095215
51.078,-0.091247559,-0.054016113
51.0785,-0.122680664,-0.079040527
51.079,-0.122680664,-0.093688965
51.0795,-0.104370117,-0.093383789
51.08,-0.110778809,-0.095214844
51.0805,-0.148925781,-0.122680664
51.081,-0.141601563,-0.129699707
51.0815,-0.128479004,-0.122680664
51.082,-0.128479004,-0.121459961
51.0825,-0.119934082,-0.11505127
51.083,-0.100402832,-0.103759766
51.0835,-0.093688965,-0.093688965
51.084,-0.071105957,-0.080566406
51.0845,-0.035095215,-0.057067871
51.085,-0.008544922,-0.036621094
51.0855,0.010986328,-0.01739502
51.086,0.018310547,-0.008544922
51.0865,0.029296875,0.002746582
51.087,0.049743652,0.01953125
51.0875,0.068664551,0.036010742
51.088,0.090026855,0.057678223
51.0885,0.118713379,0.085449219
51.089,0.118103027,0.099182129
51.0895,0.101928711,0.093383789
51.09,0.10559082,0.088500977
51.0905,0.144348145,0.110778809
51.091,0.135498047,0.114135742
51.0915,0.120544434,0.102539063
51.092,0.119628906,0.104675293
51.0925,0.113525391,0.108337402
51.093,0.094909668,0.101318359
51.0935,0.083007813,0.100097656
51.094,0.057983398,0.091247559
51.0945,0.023498535,0.073242188
51.095,-0.002746582,0.054016113
51.0955,-0.022583008,0.033874512
51.096,-0.022583008,0.024719238
51.0965,-0.043640137,0.003967285
51.097,-0.059509277,-0.022888184
51.0975,-0.073547363,-0.047607422
51.098,-0.096435547,-0.072937012
51.0985,-0.127868652,-0.099182129
51.099,-0.129089355,-0.114746094
51.0995,-0.109558105,-0.112915039
51.1,-0.112304688,-0.112915039
51.1005,-0.151367188,-0.13671875
51.101,-0.14465332,-0.137939453
51.1015,-0.129699707,-0.120849609
51.102,-0.131225586,-0.111083984
51.1025,-0.123901367,-0.104675293
51.103,-0.102844238,-0.088500977
51.1035,-0.092773438,-0.084533691
51.104,-0.069580078,-0.076293945
51.1045,-0.033874512,-0.055236816
51.105,-0.005493164,-0.036315918
51.1055,0.014648438,-0.020446777
51.106,0.018615723,-0.015563965
51.1065,0.030517578,-0.006103516
51.107,0.050964355,0.008850098
51.1075,0.069580078,0.022583008
51.108,0.093994141,0.04119873
51.1085,0.122680664,0.063171387
51.109,0.120849609,0.073547363
51.1095,0.102844238,0.064697266
51.11,0.107116699,0.062866211
51.1105,0.14831543,0.088195801
51.111,0.139770508,0.09765625
51.1115,0.121154785,0.096130371
51.112,0.11932373,0.094909668
51.1125,0.11505127,0.094909668
51.113,0.096435547,0.08392334
51.1135,0.087280273,0.078125
51.114,0.063171387,0.061645508
51.1145,0.031433105,0.038757324
51.115,0.003967285,0.01739502
51.1155,-0.016174316,0.004577637
51.116,-0.019836426,0.003967285
51.1165,-0.041503906,-0.005493164
51.117,-0.060119629,-0.021362305
51.1175,-0.073852539,-0.032348633
51.118,-0.093994141,-0.046691895
51.1185,-0.12878418,-0.07019043
51.119,-0.126647949,-0.078430176
51.1195,-0.111694336,-0.070495605
51.12,-0.116577148,-0.070495605
51.1205,-0.152282715,-0.094604492
51.121,-0.14465332,-0.101623535
51.1215,-0.130615234,-0.096740723
51.122,-0.129394531,-0.097351074
51.1225,-0.12298584,-0.094909668
51.123,-0.104980469,-0.084228516
51.1235,-0.093688965,-0.079956055
51.124,-0.073242188,-0.066833496
51.1245,-0.037841797,-0.039672852
51.125,-0.014343262,-0.019226074
51.1255,0.007629395,-0.004577637
51.126,0.010375977,-0.001525879
51.1265,0.02746582,0.006713867
51.127,0.048217773,0.024414063
51.1275,0.06439209,0.03692627
51.128,0.085754395,0.050048828
51.1285,0.116271973,0.072631836
51.129,0.116882324,0.077514648
51.1295,0.099487305,0.065917969
51.13,0.10345459,0.064697266
51.1305,0.144042969,0.092773438
51.131,0.13671875,0.106506348
51.1315,0.121459961,0.113830566
51.132,0.11932373,0.126647949
51.1325,0.114746094,0.131835938
51.133,0.098266602,0.119934082
51.1335,0.087585449,0.110473633
51.134,0.065307617,0.097045898
51.1345,0.031433105,0.068969727
51.135,0.003967285,0.039672852
51.1355,-0.015258789,0.014953613
51.136,-0.019226074,0.003662109
51.1365,-0.035400391,-0.012512207
51.137,-0.055541992,-0.031738281
51.1375,-0.069580078,-0.041809082
51.138,-0.09185791,-0.06072998
51.1385,-0.120849609,-0.087585449
51.139,-0.120239258,-0.100708008
51.1395,-0.104675293,-0.09185791
51.14,-0.109558105,-0.089111328
51.1405,-0.145568848,-0.108947754
51.141,-0.136108398,-0.112304688
51.1415,-0.122070313,-0.107116699
51.142,-0.120544434,-0.110168457
51.1425,-0.114440918,-0.110473633
51.143,-0.100097656,-0.104370117
51.1435,-0.091247559,-0.098876953
51.144,-0.067749023,-0.087890625
51.1445,-0.029907227,-0.068969727
51.145,-0.007019043,-0.051269531
51.1455,0.017089844,-0.033569336
51.146,0.020446777,-0.025024414
51.1465,0.033874512,-0.015258789
51.147,0.054626465,0.006408691
51.1475,0.072631836,0.029602051
51.148,0.093383789,0.047912598
51.1485,0.12512207,0.075378418
51.149,0.120849609,0.090942383
51.1495,0.103149414,0.085144043
51.15,0.10925293,0.086669922
51.1505,0.148925781,0.117492676
51.151,0.140991211,0.129699707
51.1515,0.123291016,0.123596191
51.152,0.122375488,0.124816895
51.1525,0.116577148,0.118713379
51.153,0.097961426,0.102539063
51.1535,0.087585449,0.090942383
51.154,0.062255859,0.074462891
51.1545,0.029602051,0.053100586
51.155,0.003356934,0.028076172
51.1555,-0.016174316,0.009155273
51.156,-0.021057129,0
51.1565,-0.040283203,-0.01159668
51.157,-0.059509277,-0.030212402
51.1575,-0.074768066,-0.042724609
51.158,-0.097351074,-0.058288574
51.1585,-0.12878418,-0.083007813
51.159,-0.132446289,-0.09552002
51.1595,-0.112609863,-0.088500977
51.16,-0.113830566,-0.084838867
51.1605,-0.153198242,-0.105285645
51.161,-0.14465332,-0.104064941
51.1615,-0.129699707,-0.092468262
51.162,-0.13092041,-0.083312988
51.1625,-0.123901367,-0.074157715
51.163,-0.106201172,-0.061035156
51.1635,-0.09765625,-0.057373047
51.164,-0.072937012,-0.048522949
51.1645,-0.036621094,-0.034179688
51.165,-0.012817383,-0.01953125
51.1655,0.009155273,-0.014953613
51.166,0.010986328,-0.018920898
51.1665,0.026855469,-0.014953613
51.167,0.049133301,-0.000610352
51.1675,0.065612793,0.012512207
51.168,0.088500977,0.027160645
51.1685,0.116271973,0.048217773
51.169,0.116271973,0.063476563
51.1695,0.100708008,0.062255859
51.17,0.104675293,0.067138672
51.1705,0.144958496,0.097351074
51.171,0.135803223,0.10559082
51.1715,0.12298584,0.100402832
51.172,0.119628906,0.098266602
51.1725,0.114440918,0.095825195
51.173,0.097961426,0.081787109
51.1735,0.087280273,0.076293945
51.174,0.063476563,0.065917969
51.1745,0.028686523,0.046386719
51.175,0.000915527,0.028381348
51.1755,-0.015869141,0.010070801
51.176,-0.01953125,0.002746582
51.1765,-0.0390625,-0.012512207
51.177,-0.058898926,-0.030822754
51.1775,-0.072021484,-0.043945313
51.178,-0.096435547,-0.061645508
51.1785,-0.128479004,-0.087585449
51.179,-0.130615234,-0.101013184
51.1795,-0.112915039,-0.098266602
51.18,-0.114440918,-0.09979248
51.1805,-0.154418945,-0.123901367
51.181,-0.145874023,-0.127563477
51.1815,-0.131835938,-0.113525391
51.182,-0.130004883,-0.10559082
51.1825,-0.124816895,-0.101623535
51.183,-0.10559082,-0.090942383
51.1835,-0.096740723,-0.085754395
51.184,-0.073852539,-0.076904297
51.1845,-0.037231445,-0.054321289
51.185,-0.01159668,-0.033874512
51.1855,0.007629395,-0.018920898
51.186,0.010375977,-0.018920898
51.1865,0.024108887,-0.013427734
51.187,0.045471191,0.002441406
51.1875,0.064697266,0.016479492
51.188,0.086669922,0.030822754
51.1885,0.116271973,0.052185059
51.189,0.118408203,0.062866211
51.1895,0.101318359,0.058288574
51.19,0.107421875,0.059509277
51.1905,0.146789551,0.088195801
51.191,0.137329102,0.102539063
51.1915,0.121765137,0.100402832
51.192,0.123596191,0.102539063
51.1925,0.119934082,0.101928711
51.193,0.100097656,0.091247559
51.1935,0.088500977,0.087280273
51.194,0.064086914,0.073852539
51.1945,0.030517578,0.053100586
51.195,0.000915527,0.032043457
51.1955,-0.018005371,0.01373291
51.196,-0.020751953,0.010070801
51.1965,-0.037841797,-0.009765625
51.197,-0.057373047,-0.026245117
51.1975,-0.070800781,-0.036621094
51.198,-0.095825195,-0.053405762
51.1985,-0.128173828,-0.078430176
51.199,-0.129699707,-0.088806152
51.1995,-0.110778809,-0.083007813
51.2,-0.114135742,-0.084228516
51.2005,-0.151672363,-0.107116699
51.201,-0.14465332,-0.1171875
51.2015,-0.129699707,-0.109558105
51.202,-0.129699707,-0.110778809
51.2025,-0.124511719,-0.108032227
51.203,-0.105285645,-0.092468262
51.2035,-0.09552002,-0.085144043
51.204,-0.074462891,-0.070495605
51.2045,-0.035095215,-0.047607422
51.205,-0.010375977,-0.029907227
51.2055,0.011291504,-0.012817383
51.206,0.014648438,-0.007019043
51.2065,0.029602051,0.003662109
51.207,0.053710938,0.024108887
51.2075,0.070495605,0.041503906
51.208,0.090026855,0.057983398
51.2085,0.120544434,0.083007813
51.209,0.121154785,0.095825195
51.2095,0.103759766,0.092163086
51.21,0.107421875,0.092163086
51.2105,0.149536133,0.120544434
51.211,0.139770508,0.127258301
51.2115,0.121765137,0.115661621
51.212,0.121765137,0.111694336
51.2125,0.116271973,0.10345459
51.213,0.096740723,0.088806152
51.2135,0.087585449,0.082702637
51.214,0.064697266,0.069885254
51.2145,0.032653809,0.050048828
51.215,0.003967285,0.026550293
51.2155,-0.016479492,0.006103516
51.216,-0.020446777,0.000305176
51.2165,-0.040588379,-0.015869141
51.217,-0.060424805,-0.042114258
51.2175,-0.074157715,-0.057983398
51.218,-0.094604492,-0.076293945
51.2185,-0.123291016,-0.102539063
51.219,-0.124511719,-0.114135742
51.2195,-0.104064941,-0.105895996
51.22,-0.105895996,-0.100708008
51.2205,-0.147705078,-0.11932373
51.221,-0.140075684,-0.11932373
51.2215,-0.122375488,-0.108947754
51.222,-0.123901367,-0.106811523
51.2225,-0.116882324,-0.104980469
51.223,-0.096435547,-0.095825195
51.2235,-0.089111328,-0.090332031
51.224,-0.066833496,-0.074768066
51.2245,-0.032958984,-0.053710938
51.225,-0.007629395,-0.030822754
51.2255,0.014648438,-0.004577637
51.226,0.018615723,0.007019043
51.2265,0.030822754,0.020446777
51.227,0.053405762,0.036315918
51.2275,0.073547363,0.050964355
51.228,0.095825195,0.06652832
51.2285,0.121765137,0.08392334
51.229,0.124816895,0.092468262
51.2295,0.108337402,0.085754395
51.23,0.113220215,0.086364746
51.2305,0.15625,0.108947754
51.231,0.145874023,0.114135742
51.2315,0.129089355,0.108642578
51.232,0.127563477,0.108947754
51.2325,0.122375488,0.112304688
51.233,0.104675293,0.102233887
51.2335,0.091247559,0.096435547
51.234,0.068359375,0.082702637
51.2345,0.034179688,0.059509277
51.235,0.009155273,0.038146973
51.2355,-0.013122559,0.016174316
51.236,-0.01739502,0.009765625
51.2365,-0.037231445,-0.000610352
51.237,-0.055541992,-0.018310547
51.2375,-0.068359375,-0.032958984
51.238,-0.093078613,-0.053710938
51.2385,-0.125732422,-0.079650879
51.239,-0.127258301,-0.093994141
51.2395,-0.108032227,-0.087585449
51.24,-0.108947754,-0.085754395
51.2405,-0.148925781,-0.111083984
51.241,-0.140686035,-0.118103027
51.2415,-0.124511719,-0.107727051
51.242,-0.122375488,-0.108642578
51.2425,-0.117797852,-0.108947754
51.243,-0.098571777,-0.100097656
51.2435,-0.092468262,-0.097351074
51.244,-0.071105957,-0.084838867
51.2445,-0.03326416,-0.055847168
51.245,-0.005493164,-0.033569336
51.2455,0.010986328,-0.011901855
51.246,0.017089844,-0.004577637
51.2465,0.029907227,0.00793457
51.247,0.049133301,0.028686523
51.2475,0.065612793,0.046691895
51.248,0.086975098,0.065002441
51.2485,0.118103027,0.086364746
51.249,0.118103027,0.09765625
51.2495,0.10345459,0.087890625
51.25,0.105895996,0.079956055
51.2505,0.144958496,0.100708008
51.251,0.137634277,0.100097656
51.2515,0.12298584,0.086669922
51.252,0.121459961,0.08392334
51.2525,0.117797852,0.083618164
51.253,0.100708008,0.074462891
51.2535,0.088500977,0.07232666
51.254,0.06439209,0.063781738
51.2545,0.031433105,0.043945313
51.255,0.005187988,0.026245117
51.2555,-0.014953613,0.008544922
51.256,-0.02166748,0.004577637
51.2565,-0.040588379,-0.007019043
51.257,-0.059814453,-0.025634766
51.2575,-0.070800781,-0.03692627
51.258,-0.094909668,-0.046081543
51.2585,-0.124816895,-0.065612793
51.259,-0.127563477,-0.07598877
51.2595,-0.108337402,-0.074462891
51.26,-0.110168457,-0.07598877
51.2605,-0.149536133,-0.107116699
51.261,-0.141601563,-0.119934082
51.2615,-0.128479004,-0.115661621
51.262,-0.126953125,-0.118713379
51.2625,-0.118408203,-0.118408203
51.263,-0.099487305,-0.107116699
51.2635,-0.090942383,-0.101318359
51.264,-0.068359375,-0.085754395
51.2645,-0.033874512,-0.056152344
51.265,-0.010070801,-0.033874512
51.2655,0.009765625,-0.016479492
51.266,0.01739502,-0.012207031
51.2665,0.03112793,-0.001525879
51.267,0.050964355,0.014648438
51.2675,0.071411133,0.029907227
51.268,0.092163086,0.044250488
51.2685,0.122070313,0.065917969
51.269,0.12298584,0.08026123
51.2695,0.107727051,0.081481934
51.27,0.108337402,0.083312988
51.2705,0.147705078,0.107727051
51.271,0.139160156,0.11505127
51.2715,0.125427246,0.113830566
51.272,0.126342773,0.119018555
51.2725,0.120544434,0.121154785
51.273,0.10345459,0.110473633
51.2735,0.092468262,0.104064941
51.274,0.068359375,0.085754395
51.2745,0.03112793,0.059204102
51.275,0.003356934,0.03326416
51.2755,-0.01159668,0.010070801
51.276,-0.013427734,0.000305176
51.2765,-0.034179688,-0.015869141
51.277,-0.057983398,-0.033874512
51.2775,-0.07019043,-0.045776367
51.278,-0.093688965,-0.063476563
51.2785,-0.125732422,-0.089416504
51.279,-0.123901367,-0.101928711
51.2795,-0.106506348,-0.09765625
51.28,-0.111999512,-0.09552002
51.2805,-0.147399902,-0.114135742
51.281,-0.141601563,-0.117492676
51.2815,-0.129394531,-0.106506348
51.282,-0.130310059,-0.105285645
51.2825,-0.124511719,-0.104675293
51.283,-0.104675293,-0.096130371
51.2835,-0.093078613,-0.093994141
51.284,-0.072021484,-0.083618164
51.2845,-0.035705566,-0.057678223
51.285,-0.008544922,-0.037841797
51.2855,0.011901855,-0.020141602
51.286,0.018920898,-0.012512207
51.2865,0.028076172,-0.001525879
51.287,0.05065918,0.017089844
51.2875,0.068664551,0.030212402
51.288,0.090637207,0.043334961
51.2885,0.121459961,0.061340332
51.289,0.124511719,0.073547363
51.2895,0.107421875,0.071716309
51.29,0.109863281,0.077514648
51.2905,0.149230957,0.106201172
51.291,0.139465332,0.114440918
51.2915,0.122680664,0.106506348
51.292,0.125427246,0.106811523
51.2925,0.119628906,0.108337402
51.293,0.101318359,0.10345459
51.2935,0.090332031,0.09979248
51.294,0.065002441,0.090026855
51.2945,0.033874512,0.069885254
51.295,0.00579834,0.048217773
51.2955,-0.01373291,0.030212402
51.296,-0.018615723,0.020751953
51.2965,-0.035400391,-0.000610352
51.297,-0.055847168,-0.025939941
51.2975,-0.070800781,-0.044555664
51.298,-0.092773438,-0.063476563
51.2985,-0.125427246,-0.086669922
51.299,-0.126037598,-0.100097656
51.2995,-0.106811523,-0.090942383
51.3,-0.106201172,-0.087890625
51.3005,-0.144348145,-0.110473633
51.301,-0.137939453,-0.115966797
51.3015,-0.124816895,-0.107116699
51.302,-0.124816895,-0.10345459
51.3025,-0.117797852,-0.103759766
51.303,-0.098876953,-0.094909668
51.3035,-0.092163086,-0.090637207
51.304,-0.071105957,-0.079345703
51.3045,-0.035400391,-0.053405762
51.305,-0.009155273,-0.034790039
51.3055,0.012817383,-0.019226074
51.306,0.01373291,-0.011291504
51.3065,0.027770996,-0.005187988
51.307,0.051269531,0.01159668
51.3075,0.07019043,0.027160645
51.308,0.09185791,0.040893555
51.3085,0.121459961,0.057678223
51.309,0.122070313,0.065612793
51.3095,0.103759766,0.059204102
51.31,0.106506348,0.059509277
51.3105,0.146179199,0.086975098
51.311,0.139160156,0.099487305
51.3115,0.120849609,0.09979248
51.312,0.121154785,0.111694336
51.3125,0.116577148,0.123901367
51.313,0.097045898,0.120239258
51.3135,0.087280273,0.113220215
51.314,0.065917969,0.096740723
51.3145,0.03326416,0.073242188
51.315,0.005493164,0.051574707
51.3155,-0.014648438,0.028991699
51.316,-0.019226074,0.018615723
51.3165,-0.038146973,0.00579834
51.317,-0.057067871,-0.012207031
51.3175,-0.069580078,-0.027160645
51.318,-0.092468262,-0.04486084
51.3185,-0.122680664,-0.070495605
51.319,-0.124816895,-0.082702637
51.3195,-0.106506348,-0.074768066
51.32,-0.110778809,-0.078735352
51.3205,-0.147399902,-0.113220215
51.321,-0.140686035,-0.126342773
51.3215,-0.126953125,-0.123596191
51.322,-0.127563477,-0.126037598
51.3225,-0.121154785,-0.122070313
51.323,-0.101928711,-0.107421875
51.3235,-0.093994141,-0.097961426
51.324,-0.071411133,-0.084228516
51.3245,-0.033569336,-0.062255859
51.325,-0.010375977,-0.042114258
51.3255,0.012817383,-0.021362305
51.326,0.013427734,-0.015563965
51.3265,0.029602051,-0.002746582
51.327,0.050048828,0.015869141
51.3275,0.065612793,0.031738281
51.328,0.089416504,0.049133301
51.3285,0.116882324,0.072631836
51.329,0.117797852,0.085754395
51.3295,0.101928711,0.079040527
51.33,0.102844238,0.07598877
51.3305,0.142822266,0.102844238
51.331,0.136108398,0.110473633
51.3315,0.121765137,0.104675293
51.332,0.121154785,0.107421875
51.3325,0.1171875,0.10559082
51.333,0.099487305,0.096740723
51.3335,0.086669922,0.085754395
51.334,0.063476563,0.068054199
51.3345,0.030822754,0.045166016
51.335,0.003967285,0.018310547
51.3355,-0.014953613,-0.001525879
51.336,-0.021057129,-0.009460449
51.3365,-0.037841797,-0.020751953
51.337,-0.055541992,-0.037536621
51.3375,-0.069580078,-0.045166016
51.338,-0.090332031,-0.052490234
51.3385,-0.123596191,-0.07232666
51.339,-0.12512207,-0.079956055
51.3395,-0.107421875,-0.072631836
51.34,-0.108032227,-0.071411133
51.3405,-0.14831543,-0.096435547
51.341,-0.143737793,-0.109863281
51.3415,-0.127563477,-0.10559082
51.342,-0.127868652,-0.107116699
51.3425,-0.120544434,-0.108947754
51.343,-0.100097656,-0.098571777
51.3435,-0.090332031,-0.093078613
51.344,-0.068054199,-0.079650879
51.3445,-0.032653809,-0.055847168
51.345,-0.007019043,-0.034790039
51.3455,0.016174316,-0.017700195
51.346,0.016784668,-0.012512207
51.3465,0.032958984,-0.004272461
51.347,0.05279541,0.010986328
51.3475,0.069580078,0.023803711
51.348,0.088806152,0.042114258
51.3485,0.117492676,0.062561035
51.349,0.118713379,0.069580078
51.3495,0.101928711,0.065002441
51.35,0.103759766,0.06652832
51.3505,0.142822266,0.094909668
51.351,0.13458252,0.107116699
51.3515,0.119628906,0.106811523
51.352,0.121154785,0.105895996
51.3525,0.118103027,0.108947754
51.353,0.099182129,0.10345459
51.3535,0.088806152,0.100097656
51.354,0.067749023,0.090637207
51.3545,0.034790039,0.072937012
51.355,0.009155273,0.053710938
51.3555,-0.010986328,0.034179688
51.356,-0.013427734,0.028991699
51.3565,-0.03112793,0.015563965
51.357,-0.054321289,-0.002441406
51.3575,-0.069274902,-0.01739502
51.358,-0.087280273,-0.037231445
51.3585,-0.121154785,-0.068054199
51.359,-0.121154785,-0.084228516
51.3595,-0.103759766,-0.083312988
51.36,-0.105285645,-0.082092285
51.3605,-0.147094727,-0.108642578
51.361,-0.138244629,-0.121154785
51.3615,-0.122375488,-0.116577148
51.362,-0.123596191,-0.115356445
51.3625,-0.117492676,-0.108947754
51.363,-0.098266602,-0.093383789
51.3635,-0.089416504,-0.08392334
51.364,-0.067749023,-0.06652832
51.3645,-0.030822754,-0.040588379
51.365,-0.007019043,-0.021362305
51.3655,0.015869141,-0.00213623
51.366,0.019836426,0.004577637
51.3665,0.034179688,0.016479492
51.367,0.054931641,0.027770996
51.3675,0.072021484,0.039978027
51.368,0.095214844,0.060119629
51.3685,0.123596191,0.085754395
51.369,0.124206543,0.095825195
51.3695,0.107116699,0.088500977
51.37,0.107727051,0.081481934
51.3705,0.150146484,0.105895996
51.371,0.141906738,0.108642578
51.3715,0.126953125,0.098571777
51.372,0.125427246,0.098876953
51.3725,0.121154785,0.09979248
51.373,0.101928711,0.08972168
51.3735,0.089111328,0.08605957
51.374,0.065307617,0.074768066
51.3745,0.031738281,0.055236816
51.375,0.006408691,0.036315918
51.3755,-0.016174316,0.019836426
51.376,-0.018310547,0.010681152
51.3765,-0.035400391,-0.002746582
51.377,-0.056152344,-0.025024414
51.3775,-0.069580078,-0.041809082
51.378,-0.091247559,-0.059204102
51.3785,-0.121459961,-0.085144043
51.379,-0.123291016,-0.099182129
51.3795,-0.104064941,-0.094604492
51.38,-0.107116699,-0.092468262
51.3805,-0.144958496,-0.118103027
51.381,-0.140686035,-0.125732422
51.3815,-0.12878418,-0.123291016
51.382,-0.126953125,-0.122680664
51.3825,-0.121459961,-0.116577148
51.383,-0.100708008,-0.09979248
51.3835,-0.092468262,-0.091552734
51.384,-0.070495605,-0.079040527
51.3845,-0.032043457,-0.053710938
51.385,-0.008850098,-0.029296875
51.3855,0.010986328,-0.009460449
51.386,0.016174316,-0.003356934
51.3865,0.02746582,0.004577637
51.387,0.048828125,0.018920898
51.3875,0.065612793,0.03112793
51.388,0.087280273,0.045471191
51.3885,0.116271973,0.068664551
51.389,0.115356445,0.080871582
51.3895,0.09765625,0.078430176
51.39,0.102539063,0.083007813
51.3905,0.142211914,0.112609863
51.391,0.131835938,0.119628906
51.3915,0.116577148,0.111694336
51.392,0.117492676,0.109863281
51.3925,0.112304688,0.108032227
51.393,0.093383789,0.096435547
51.3935,0.084228516,0.090332031
51.394,0.062561035,0.074462891
51.3945,0.030212402,0.050964355
51.395,0.004577637,0.031738281
51.3955,-0.015563965,0.010986328
51.396,-0.018005371,0.006103516
51.3965,-0.03692627,-0.008239746
51.397,-0.058898926,-0.02532959
51.3975,-0.072021484,-0.038757324
51.398,-0.093688965,-0.05279541
51.3985,-0.125732422,-0.079345703
51.399,-0.127258301,-0.092773438
51.3995,-0.110473633,-0.088500977
51.4,-0.112304688,-0.088195801
51.4005,-0.151672363,-0.10925293
51.401,-0.145568848,-0.109558105
51.4015,-0.131530762,-0.094909668
51.402,-0.130004883,-0.090332031
51.4025,-0.126647949,-0.087280273
51.403,-0.107421875,-0.07598877
51.4035,-0.095214844,-0.073242188
51.404,-0.072937012,-0.062866211
51.4045,-0.037841797,-0.044250488
51.405,-0.009460449,-0.025024414
51.4055,0.011901855,-0.002746582
51.406,0.018310547,0.003967285
51.4065,0.03112793,0.015563965
51.407,0.05065918,0.03112793
51.4075,0.069885254,0.047302246
51.408,0.090332031,0.061950684
51.4085,0.11932373,0.081176758
51.409,0.119018555,0.087585449
51.4095,0.102539063,0.075378418
51.41,0.106201172,0.071716309
51.4105,0.145263672,0.094604492
51.411,0.135498047,0.104980469
51.4115,0.117797852,0.095214844
51.412,0.119628906,0.093994141
51.4125,0.114135742,0.095214844
51.413,0.097351074,0.087890625
51.4135,0.084228516,0.082092285
51.414,0.063476563,0.065917969
51.4145,0.029602051,0.042419434
51.415,0.001831055,0.02166748
51.4155,-0.016174316,0.007629395
51.416,-0.023498535,0.004272461
51.4165,-0.042114258,-0.010681152
51.417,-0.061340332,-0.028381348
51.4175,-0.074462891,-0.039672852
51.418,-0.098266602,-0.054931641
51.4185,-0.128479004,-0.075683594
51.419,-0.12878418,-0.083312988
51.4195,-0.109863281,-0.078735352
51.42,-0.111999512,-0.078125
51.4205,-0.152893066,-0.107116699
51.421,-0.148010254,-0.120849609
51.4215,-0.132141113,-0.114135742
51.422,-0.131225586,-0.112915039
51.4225,-0.124511719,-0.110778809
51.423,-0.105895996,-0.098571777
51.4235,-0.096435547,-0.093688965
51.424,-0.075073242,-0.079040527
51.4245,-0.040283203,-0.055236816
51.425,-0.014343262,-0.030517578
51.4255,0.006713867,-0.007324219
51.426,0.011291504,0.003051758
51.4265,0.024719238,0.016784668
51.427,0.047607422,0.030822754
51.4275,0.06439209,0.045776367
51.428,0.084228516,0.059204102
51.4285,0.115356445,0.083007813
51.429,0.116882324,0.088500977
51.4295,0.097045898,0.073852539
51.43,0.098876953,0.068054199
51.4305,0.139465332,0.092773438
51.431,0.131835938,0.09979248
51.4315,0.116271973,0.093688965
51.432,0.1171875,0.095214844
51.4325,0.112304688,0.09979248
51.433,0.093078613,0.088500977
51.4335,0.083007813,0.083007813
51.434,0.059204102,0.073242188
51.4345,0.025634766,0.057067871
51.435,-0.00213623,0.036315918
51.4355,-0.018615723,0.019836426
51.436,-0.024719238,0.015869141
51.4365,-0.04119873,0.003051758
51.437,-0.06072998,-0.01373291
51.4375,-0.074157715,-0.027770996
51.438,-0.097961426,-0.048522949
51.4385,-0.128479004,-0.075683594
51.439,-0.132446289,-0.087585449
51.4395,-0.112609863,-0.082092285
51.44,-0.113525391,-0.078125
51.4405,-0.149841309,-0.103759766
51.441,-0.141296387,-0.115661621
51.4415,-0.12298584,-0.116577148
51.442,-0.121765137,-0.117797852
51.4425,-0.117797852,-0.119628906
51.443,-0.09979248,-0.113525391
51.4435,-0.093994141,-0.113220215
51.444,-0.072021484,-0.103149414
51.4445,-0.037536621,-0.075683594
51.445,-0.015563965,-0.048828125
51.4455,0.005493164,-0.021057129
51.446,0.009765625,-0.008544922
51.4465,0.025634766,0.009460449
51.447,0.044555664,0.027770996
51.4475,0.06439209,0.039367676
51.448,0.088195801,0.055847168
51.4485,0.119934082,0.076599121
51.449,0.120849609,0.086975098
51.4495,0.101928711,0.077514648
51.45,0.104980469,0.068359375
51.4505,0.145263672,0.088500977
51.451,0.134887695,0.090942383
51.4515,0.118408203,0.083312988
51.452,0.11932373,0.085754395
51.4525,0.116577148,0.093383789
51.453,0.097351074,0.090637207
51.4535,0.089111328,0.088806152
51.454,0.06652832,0.081787109
51.4545,0.03326416,0.06439209
51.455,0.004882813,0.047607422
51.4555,-0.012817383,0.028991699
51.456,-0.019836426,0.020751953
51.4565,-0.03692627,-0.000915527
51.457,-0.058288574,-0.020751953
51.4575,-0.072631836,-0.036315918
51.458,-0.093383789,-0.052490234
51.4585,-0.12512207,-0.070495605
51.459,-0.128479004,-0.082397461
51.4595,-0.111694336,-0.078430176
51.46,-0.11138916,-0.077209473
51.4605,-0.151977539,-0.10345459
51.461,-0.144042969,-0.113220215
51.4615,-0.130004883,-0.112304688
51.462,-0.128173828,-0.11138916
51.4625,-0.123901367,-0.109558105
51.463,-0.103759766,-0.096130371
51.4635,-0.09552002,-0.090637207
51.464,-0.075683594,-0.078735352
51.4645,-0.038146973,-0.054016113
51.465,-0.012207031,-0.035095215
51.4655,0.01159668,-0.016784668
51.466,0.012512207,-0.010070801
51.4665,0.025939941,-0.003967285
51.467,0.049133301,0.009155273
51.4675,0.066833496,0.01953125
51.468,0.086975098,0.034484863
51.4685,0.117797852,0.062255859
51.469,0.11932373,0.079956055
51.4695,0.104064941,0.079345703
51.47,0.106201172,0.082702637
51.4705,0.145568848,0.111083984
51.471,0.139160156,0.119934082
51.4715,0.121154785,0.113220215
51.472,0.120239258,0.117492676
51.4725,0.11505127,0.123291016
51.473,0.097351074,0.120544434
51.4735,0.085449219,0.11505127
51.474,0.061950684,0.104675293
51.4745,0.030517578,0.081176758
51.475,0.001525879,0.055847168
51.4755,-0.019836426,0.031738281
51.476,-0.020751953,0.018310547
51.4765,-0.038452148,-0.000305176
51.477,-0.057373047,-0.025939941
51.4775,-0.071716309,-0.043029785
51.478,-0.093383789,-0.055541992
51.4785,-0.126953125,-0.07598877
51.479,-0.129699707,-0.085449219
51.4795,-0.110473633,-0.076904297
51.48,-0.110473633,-0.07598877
51.4805,-0.151672363,-0.104980469
51.481,-0.146789551,-0.116271973
51.4815,-0.130004883,-0.109558105
51.482,-0.12878418,-0.108642578
51.4825,-0.124206543,-0.112609863
51.483,-0.103759766,-0.103149414
51.4835,-0.093383789,-0.09765625
51.484,-0.070800781,-0.084228516
51.4845,-0.034179688,-0.064086914
51.485,-0.00793457,-0.045166016
51.4855,0.01373291,-0.025939941
51.486,0.016174316,-0.010681152
51.4865,0.028381348,0.007019043
51.487,0.052490234,0.029296875
51.4875,0.069274902,0.049743652
51.488,0.089111328,0.06439209
51.4885,0.117797852,0.081787109
51.489,0.121459961,0.089111328
51.4895,0.102844238,0.082092285
51.49,0.105895996,0.078735352
51.4905,0.146484375,0.101013184
51.491,0.136413574,0.101623535
51.4915,0.120544434,0.087890625
51.492,0.12298584,0.088806152
51.4925,0.117797852,0.093078613
51.493,0.097351074,0.083618164
51.4935,0.087280273,0.08026123
51.494,0.063476563,0.069885254
51.4945,0.028991699,0.050964355
51.495,0.002441406,0.030822754
51.4955,-0.016784668,0.014953613
51.496,-0.020141602,0.008544922
51.4965,-0.0390625,-0.002746582
51.497,-0.059204102,-0.015869141
51.4975,-0.07232666,-0.028686523
51.498,-0.093688965,-0.046386719
51.4985,-0.125732422,-0.071411133
51.499,-0.127258301,-0.08605957
51.4995,-0.104675293,-0.08026123
51.5,-0.108947754,-0.083312988
51.5005,-0.149841309,-0.108337402
51.501,-0.139770508,-0.1171875
51.5015,-0.126953125,-0.10925293
51.502,-0.126037598,-0.101623535
51.5025,-0.119018555,-0.096740723
51.503,-0.101318359,-0.083618164
51.5035,-0.095825195,-0.082702637
51.504,-0.073547363,-0.070800781
51.5045,-0.035095215,-0.046386719
51.505,-0.011291504,-0.025024414
51.5055,0.012207031,-0.004577637
51.506,0.015563965,-0.000610352
51.5065,0.02746582,0.008850098
51.507,0.04699707,0.022277832
51.5075,0.066833496,0.033874512
51.508,0.089416504,0.044250488
51.5085,0.119018555,0.06072998
51.509,0.119628906,0.070800781
51.5095,0.101623535,0.062255859
51.51,0.104064941,0.057983398
51.5105,0.143737793,0.084228516
51.511,0.137329102,0.096130371
51.5115,0.121765137,0.094604492
51.512,0.120849609,0.100708008
51.5125,0.1171875,0.108337402
51.513,0.100402832,0.101013184
51.5135,0.087890625,0.094604492
51.514,0.065002441,0.079345703
51.5145,0.029907227,0.05279541
51.515,0.003051758,0.030822754
51.5155,-0.01739502,0.01159668
51.516,-0.023498535,0.001525879
51.5165,-0.042724609,-0.013122559
51.517,-0.063171387,-0.029907227
51.5175,-0.079040527,-0.043945313
51.518,-0.101013184,-0.060424805
51.5185,-0.130004883,-0.081787109
51.519,-0.132751465,-0.094909668
51.5195,-0.111999512,-0.089111328
51.52,-0.111694336,-0.087890625
51.5205,-0.150756836,-0.11138916
51.521,-0.145568848,-0.117797852
51.5215,-0.129089355,-0.107116699
51.522,-0.125427246,-0.103759766
51.5225,-0.120544434,-0.099182129
51.523,-0.101928711,-0.084533691
51.5235,-0.091552734,-0.073242188
51.524,-0.069274902,-0.061645508
51.5245,-0.031433105,-0.044250488
51.525,-0.008544922,-0.027770996
51.5255,0.010986328,-0.01159668
51.526,0.013122559,-0.008850098
51.5265,0.027770996,-0.000915527
51.527,0.050354004,0.012207031
51.5275,0.068359375,0.026550293
51.528,0.089111328,0.041503906
51.5285,0.1171875,0.065612793
51.529,0.120849609,0.078125
51.5295,0.102539063,0.068359375
51.53,0.105895996,0.066223145
51.5305,0.146179199,0.090942383
51.531,0.139160156,0.103149414
51.5315,0.124511719,0.09765625
51.532,0.123291016,0.099182129
51.5325,0.11932373,0.101623535
51.533,0.099487305,0.096740723
51.5335,0.088806152,0.091552734
51.534,0.066223145,0.079956055
51.5345,0.032958984,0.062561035
51.535,0.006103516,0.045776367
51.5355,-0.015563965,0.02746582
51.536,-0.01739502,0.015563965
51.5365,-0.037536621,0.001831055
51.537,-0.058288574,-0.016174316
51.5375,-0.073547363,-0.027160645
51.538,-0.092773438,-0.037841797
51.5385,-0.125732422,-0.055541992
51.539,-0.126953125,-0.061645508
51.5395,-0.108337402,-0.05065918
51.54,-0.110778809,-0.048522949
51.5405,-0.149841309,-0.073547363
51.541,-0.144348145,-0.079345703
51.5415,-0.130615234,-0.075073242
51.542,-0.128173828,-0.079040527
51.5425,-0.122680664,-0.08972168
51.543,-0.102844238,-0.087280273
51.5435,-0.092773438,-0.091552734
51.544,-0.069580078,-0.082397461
51.5445,-0.03326416,-0.066223145
51.545,-0.007019043,-0.049743652
51.5455,0.012817383,-0.029602051
51.546,0.016784668,-0.019226074
51.5465,0.031433105,-0.005493164
51.547,0.053100586,0.011901855
51.5475,0.072631836,0.026855469
51.548,0.094604492,0.046691895
51.5485,0.12512207,0.069274902
51.549,0.126953125,0.079956055
51.5495,0.109863281,0.07232666
51.55,0.11138916,0.070495605
51.5505,0.151062012,0.098571777
51.551,0.14465332,0.109558105
51.5515,0.129089355,0.104064941
51.552,0.129089355,0.102539063
51.5525,0.124816895,0.101318359
51.553,0.106201172,0.090637207
51.5535,0.093383789,0.083312988
51.554,0.069274902,0.069580078
51.5545,0.036621094,0.046386719
51.555,0.009765625,0.028686523
51.5555,-0.010986328,0.018005371
51.556,-0.014648438,0.013122559
51.5565,-0.033569336,0.003356934
51.557,-0.053100586,-0.011291504
51.5575,-0.06652832,-0.024414063
51.558,-0.084228516,-0.042114258
51.5585,-0.1171875,-0.07019043
51.559,-0.121765137,-0.088195801
51.5595,-0.101623535,-0.090026855
51.56,-0.102539063,-0.094909668
51.5605,-0.140991211,-0.124206543
51.561,-0.133056641,-0.132751465
51.5615,-0.119628906,-0.125732422
51.562,-0.120544434,-0.123291016
51.5625,-0.112915039,-0.121765137
51.563,-0.092773438,-0.110168457
51.5635,-0.087280273,-0.104980469
51.564,-0.065002441,-0.088806152
51.5645,-0.028381348,-0.065612793
51.565,-0.000915527,-0.046386719
51.5655,0.022277832,-0.027160645
51.566,0.026855469,-0.021972656
51.5665,0.039672852,-0.01159668
51.567,0.057067871,0.004272461
51.5675,0.073852539,0.01739502
51.568,0.094299316,0.034484863
51.5685,0.125732422,0.060119629
51.569,0.127258301,0.07232666
51.5695,0.110778809,0.067138672
51.57,0.113830566,0.070495605
51.5705,0.151367188,0.096740723
51.571,0.14251709,0.108947754
51.5715,0.126342773,0.107727051
51.572,0.123901367,0.112915039
51.5725,0.118103027,0.115661621
51.573,0.09979248,0.104064941
51.5735,0.088195801,0.098571777
51.574,0.068359375,0.085449219
51.5745,0.03692627,0.065002441
51.575,0.012512207,0.042419434
51.5755,-0.00579834,0.020446777
51.576,-0.012817383,0.00793457
51.5765,-0.028076172,-0.007324219
51.577,-0.048828125,-0.02746582
51.5775,-0.064086914,-0.04119873
51.578,-0.086975098,-0.057373047
51.5785,-0.1171875,-0.082397461
51.579,-0.119934082,-0.096740723
51.5795,-0.101928711,-0.090332031
51.58,-0.104980469,-0.086669922
51.5805,-0.145263672,-0.104980469
51.581,-0.139770508,-0.111999512
51.5815,-0.124816895,-0.107421875
51.582,-0.120544434,-0.106201172
51.5825,-0.114746094,-0.101318359
51.583,-0.097351074,-0.088806152
51.5835,-0.090332031,-0.081787109
51.584,-0.066223145,-0.068664551
51.5845,-0.031433105,-0.046081543
51.585,-0.006408691,-0.028076172
51.5855,0.015869141,-0.011291504
51.586,0.019836426,-0.006713867
51.5865,0.029907227,0.002746582
51.587,0.054321289,0.019226074
51.5875,0.071411133,0.035705566
51.588,0.092163086,0.054626465
51.5885,0.121154785,0.076599121
51.589,0.123596191,0.085144043
51.5895,0.108032227,0.077209473
51.59,0.108642578,0.073242188
51.5905,0.148620605,0.099487305
51.591,0.141296387,0.110473633
51.5915,0.124206543,0.108947754
51.592,0.12512207,0.113830566
51.5925,0.121765137,0.113525391
51.593,0.102233887,0.104064941
51.5935,0.092163086,0.091247559
51.594,0.070495605,0.079040527
51.5945,0.036315918,0.062255859
51.595,0.009155273,0.044250488
51.5955,-0.010986328,0.02532959
51.596,-0.014343262,0.015563965
51.5965,-0.033569336,-0.001220703
51.597,-0.05279541,-0.024108887
51.5975,-0.067138672,-0.040588379
51.598,-0.08972168,-0.05859375
51.5985,-0.120544434,-0.084228516
51.599,-0.120544434,-0.097351074
51.5995,-0.101623535,-0.096740723
51.6,-0.103759766,-0.099182129
51.6005,-0.142211914,-0.124816895
51.601,-0.134887695,-0.13092041
51.6015,-0.121459961,-0.125427246
51.602,-0.119628906,-0.126953125
51.6025,-0.114440918,-0.130004883
51.603,-0.096740723,-0.124206543
51.6035,-0.088500977,-0.116882324
51.604,-0.066833496,-0.102539063
51.6045,-0.03112793,-0.079345703
51.605,-0.004882813,-0.054016113
51.6055,0.01739502,-0.031433105
51.606,0.018310547,-0.023803711
51.6065,0.03326416,-0.009460449
51.607,0.056762695,0.01159668
51.6075,0.073242188,0.03112793
51.608,0.09552002,0.047302246
51.6085,0.126037598,0.073547363
51.609,0.122375488,0.090026855
51.6095,0.104980469,0.088195801
51.61,0.108032227,0.085144043
51.6105,0.145874023,0.108032227
51.611,0.138244629,0.111999512
51.6115,0.122070313,0.101928711
51.612,0.122680664,0.09979248
51.6125,0.117797852,0.095214844
51.613,0.100402832,0.082397461
51.6135,0.08972168,0.076293945
51.614,0.067138672,0.059814453
51.6145,0.034484863,0.040588379
51.615,0.006408691,0.021362305
51.6155,-0.010986328,0.006408691
51.616,-0.018005371,-0.000610352
51.6165,-0.037536621,-0.011291504
51.617,-0.058288574,-0.02746582
51.6175,-0.072631836,-0.041809082
51.618,-0.094909668,-0.061340332
51.6185,-0.124816895,-0.087585449
51.619,-0.127258301,-0.099182129
51.6195,-0.109863281,-0.093994141
51.62,-0.112609863,-0.088806152
51.6205,-0.153503418,-0.104064941
51.621,-0.145568848,-0.10559082
51.6215,-0.129394531,-0.097045898
51.622,-0.126953125,-0.097045898
51.6225,-0.122070313,-0.092468262
51.623,-0.101928711,-0.080566406
51.6235,-0.093688965,-0.073242188
51.624,-0.07019043,-0.05859375
51.6245,-0.035400391,-0.039672852
51.625,-0.010070801,-0.023803711
51.6255,0.01159668,-0.002746582
51.626,0.01373291,0.00213623
51.6265,0.027160645,0.010070801
51.627,0.046386719,0.023498535
51.6275,0.063476563,0.037231445
51.628,0.085754395,0.051269531
51.6285,0.114440918,0.071716309
51.629,0.117492676,0.083312988
51.6295,0.102233887,0.077209473
51.63,0.103759766,0.078430176
51.6305,0.145568848,0.106201172
51.631,0.13885498,0.113525391
51.6315,0.122070313,0.10559082
51.632,0.122680664,0.10559082
51.6325,0.119934082,0.109863281
51.633,0.102539063,0.103759766
51.6335,0.090637207,0.100097656
51.634,0.068359375,0.082092285
51.6345,0.035095215,0.053100586
51.635,0.008544922,0.027770996
51.6355,-0.012207031,0.007019043
51.636,-0.014038086,-0.001831055
51.6365,-0.031433105,-0.010986328
51.637,-0.050964355,-0.024414063
51.6375,-0.06652832,-0.032653809
51.638,-0.088500977,-0.04699707
51.6385,-0.120544434,-0.073852539
51.639,-0.123901367,-0.088500977
51.6395,-0.104064941,-0.08605957
51.64,-0.102844238,-0.08392334
51.6405,-0.14251709,-0.111999512
51.641,-0.138244629,-0.12512207
51.6415,-0.122070313,-0.116882324
51.642,-0.123596191,-0.112609863
51.6425,-0.117492676,-0.108032227
51.643,-0.093994141,-0.093688965
51.6435,-0.087585449,-0.087585449
51.644,-0.06652832,-0.073242188
51.6445,-0.029907227,-0.050048828
51.645,-0.004272461,-0.030822754
51.6455,0.015563965,-0.011901855
51.646,0.018310547,-0.003967285
51.6465,0.032958984,0.008239746
51.647,0.055236816,0.025939941
51.6475,0.071716309,0.043334961
51.648,0.09185791,0.063171387
51.6485,0.121459961,0.086975098
51.649,0.121154785,0.093383789
51.6495,0.10559082,0.074768066
51.65,0.108337402,0.065612793
51.6505,0.148925781,0.085144043
51.651,0.14251709,0.090637207
51.6515,0.127563477,0.079345703
51.652,0.126342773,0.077209473
51.6525,0.121459961,0.077514648
51.653,0.100708008,0.069580078
51.6535,0.089416504,0.065002441
51.654,0.065002441,0.053710938
51.6545,0.028686523,0.031738281
51.655,0.003051758,0.009155273
51.6555,-0.016784668,-0.008239746
51.656,-0.018310547,-0.014648438
51.6565,-0.036010742,-0.023498535
51.657,-0.057678223,-0.040283203
51.6575,-0.068664551,-0.051269531
51.658,-0.088500977,-0.065917969
51.6585,-0.121459961,-0.082092285
51.659,-0.12298584,-0.090942383
51.6595,-0.102844238,-0.082397461
51.66,-0.103759766,-0.078430176
51.6605,-0.143432617,-0.101318359
51.661,-0.139160156,-0.107421875
51.6615,-0.126342773,-0.094604492
51.662,-0.124511719,-0.092468262
51.6625,-0.118103027,-0.090637207
51.663,-0.098876953,-0.083618164
51.6635,-0.090332031,-0.076599121
51.664,-0.068054199,-0.06439209
51.6645,-0.033569336,-0.040588379
51.665,-0.006103516,-0.018310547
51.6655,0.01373291,-0.000610352
51.666,0.019836426,0.007629395
51.6665,0.032348633,0.021057129
51.667,0.054016113,0.039367676
51.6675,0.071105957,0.051269531
51.668,0.093688965,0.061340332
51.6685,0.122070313,0.077819824
51.669,0.12298584,0.08026123
51.6695,0.10559082,0.065002441
51.67,0.107116699,0.055541992
51.6705,0.146789551,0.075683594
51.671,0.13885498,0.079345703
51.6715,0.122070313,0.073547363
51.672,0.122375488,0.077209473
51.6725,0.119628906,0.083007813
51.673,0.101623535,0.077209473
51.6735,0.091247559,0.074462891
51.674,0.068359375,0.06439209
51.6745,0.035400391,0.046691895
51.675,0.007019043,0.028381348
51.6755,-0.014648438,0.011901855
51.676,-0.016784668,0.00579834
51.6765,-0.037231445,-0.007324219
51.677,-0.06072998,-0.02746582
51.6775,-0.071105957,-0.039367676
51.678,-0.093994141,-0.055236816
51.6785,-0.125427246,-0.083312988
51.679,-0.126037598,-0.09552002
51.6795,-0.106201172,-0.092163086
51.68,-0.108337402,-0.090332031
51.6805,-0.145568848,-0.109558105
51.681,-0.137023926,-0.108337402
51.6815,-0.124206543,-0.100708008
51.682,-0.121765137,-0.099487305
51.6825,-0.118713379,-0.099487305
51.683,-0.09979248,-0.087585449
51.6835,-0.08972168,-0.078125
51.684,-0.067749023,-0.067443848
51.6845,-0.033874512,-0.052185059
51.685,-0.007324219,-0.038452148
51.6855,0.011901855,-0.023498535
51.686,0.01739502,-0.015869141
51.6865,0.028076172,-0.006408691
51.687,0.051269531,0.009155273
51.6875,0.068664551,0.022583008
51.688,0.090026855,0.04119873
51.6885,0.116882324,0.063781738
51.689,0.115966797,0.07598877
51.6895,0.101013184,0.074157715
51.69,0.106506348,0.080566406
51.6905,0.146789551,0.112304688
51.691,0.140380859,0.121459961
51.6915,0.124511719,0.112915039
51.692,0.12298584,0.112304688
51.6925,0.11932373,0.108032227
51.693,0.098876953,0.097045898
51.6935,0.087585449,0.092163086
51.694,0.065002441,0.078125
51.6945,0.03112793,0.051269531
51.695,0.008544922,0.028991699
51.6955,-0.011291504,0.014038086
51.696,-0.014953613,0.01159668
51.6965,-0.033569336,0.005493164
51.697,-0.053710938,-0.010375977
51.6975,-0.068359375,-0.01953125
51.698,-0.090026855,-0.03326416
51.6985,-0.120849609,-0.056152344
51.699,-0.125732422,-0.069885254
51.6995,-0.107116699,-0.072021484
51.7,-0.109863281,-0.076293945
51.7005,-0.147705078,-0.10345459
51.701,-0.141296387,-0.116882324
51.7015,-0.127868652,-0.107116699
51.702,-0.127563477,-0.09979248
51.7025,-0.123901367,-0.093383789
51.703,-0.101318359,-0.082397461
51.7035,-0.093994141,-0.078125
51.704,-0.074768066,-0.066833496
51.7045,-0.036315918,-0.046386719
51.705,-0.009765625,-0.028991699
51.7055,0.014648438,-0.016479492
51.706,0.01739502,-0.014343262
51.7065,0.032043457,-0.003967285
51.707,0.049438477,0.016784668
51.7075,0.066833496,0.032958984
51.708,0.086669922,0.048217773
51.7085,0.115661621,0.069580078
51.709,0.117797852,0.082702637
51.7095,0.098876953,0.075378418
51.71,0.100097656,0.070495605
51.7105,0.14251709,0.090942383
51.711,0.134887695,0.097961426
51.7115,0.122375488,0.092468262
51.712,0.119628906,0.093078613
51.7125,0.116271973,0.095825195
51.713,0.094909668,0.088500977
51.7135,0.087280273,0.083007813
51.714,0.065002441,0.071716309
51.7145,0.03326416,0.055541992
51.715,0.006713867,0.038452148
51.7155,-0.014038086,0.021362305
51.716,-0.020141602,0.013427734
51.7165,-0.036315918,0.000305176
51.717,-0.053405762,-0.018920898
51.7175,-0.067443848,-0.032653809
51.718,-0.08972168,-0.048217773
51.7185,-0.121459961,-0.072021484
51.719,-0.122680664,-0.086669922
51.7195,-0.106811523,-0.083312988
51.72,-0.105285645,-0.080566406
51.7205,-0.14251709,-0.101318359
51.721,-0.13671875,-0.108032227
51.7215,-0.121154785,-0.101928711
51.722,-0.123291016,-0.104370117
51.7225,-0.115966797,-0.104370117
51.723,-0.098266602,-0.093994141
51.7235,-0.088806152,-0.086975098
51.724,-0.067443848,-0.074768066
51.7245,-0.031738281,-0.05279541
51.725,-0.007324219,-0.032653809
51.7255,0.012817383,-0.014038086
51.726,0.01739502,-0.006103516
51.7265,0.030822754,0.005187988
51.727,0.049133301,0.022888184
51.7275,0.065307617,0.033569336
51.728,0.084228516,0.049438477
51.7285,0.113830566,0.069580078
51.729,0.115356445,0.079040527
51.7295,0.100708008,0.072937012
51.73,0.102844238,0.073547363
51.7305,0.14251709,0.096740723
51.731,0.133972168,0.106506348
51.7315,0.11505127,0.101318359
51.732,0.114135742,0.10345459
51.7325,0.106811523,0.102844238
51.733,0.092163086,0.095214844
51.7335,0.083618164,0.088806152
51.734,0.059814453,0.075683594
51.7345,0.026245117,0.056762695
51.735,0.000610352,0.040588379
51.7355,-0.019226074,0.026245117
51.736,-0.024719238,0.025939941
51.7365,-0.043029785,0.020141602
51.737,-0.064697266,0.006103516
51.7375,-0.078125,-0.00213623
51.738,-0.100402832,-0.021057129
51.7385,-0.131225586,-0.052490234
51.739,-0.134277344,-0.070800781
51.7395,-0.1171875,-0.072631836
51.74,-0.117492676,-0.074157715
51.7405,-0.15411377,-0.097351074
51.741,-0.146484375,-0.101623535
51.7415,-0.132446289,-0.093383789
51.742,-0.13092041,-0.092773438
51.7425,-0.124511719,-0.091247559
51.743,-0.105895996,-0.078125
51.7435,-0.09765625,-0.07598877
51.744,-0.075378418,-0.063171387
51.7445,-0.038452148,-0.036621094
51.745,-0.014953613,-0.01953125
51.7455,0.006713867,-0.010681152
51.746,0.010681152,-0.007019043
51.7465,0.023193359,-0.000305176
51.747,0.049743652,0.011901855
51.7475,0.067138672,0.021057129
51.748,0.086975098,0.036621094
51.7485,0.117797852,0.055847168
51.749,0.116271973,0.06652832
51.7495,0.097961426,0.061340332
51.75,0.101013184,0.060424805
51.7505,0.140686035,0.087585449
51.751,0.134277344,0.102539063
51.7515,0.118408203,0.100708008
51.752,0.114746094,0.102233887
51.7525,0.113525391,0.102233887
51.753,0.097045898,0.093994141
51.7535,0.08605957,0.090942383
51.754,0.063171387,0.077209473
51.7545,0.030517578,0.059204102
51.755,0.001220703,0.04119873
51.7555,-0.015258789,0.02166748
51.756,-0.019836426,0.011901855
51.7565,-0.036621094,-0.003967285
51.757,-0.057678223,-0.025939941
51.7575,-0.071105957,-0.034484863
51.758,-0.094604492,-0.043945313
51.7585,-0.125732422,-0.063476563
51.759,-0.126953125,-0.074157715
51.7595,-0.106811523,-0.06652832
51.76,-0.108642578,-0.065002441
51.7605,-0.14831543,-0.085449219
51.761,-0.144042969,-0.090942383
51.7615,-0.127868652,-0.085754395
51.762,-0.124816895,-0.086669922
51.7625,-0.1171875,-0.088500977
51.763,-0.099487305,-0.081787109
51.7635,-0.091552734,-0.082092285
51.764,-0.071105957,-0.072631836
51.7645,-0.033569336,-0.049438477
51.765,-0.008544922,-0.030517578
51.7655,0.012207031,-0.015563965
51.766,0.015563965,-0.011901855
51.7665,0.030822754,-0.001220703
51.767,0.05279541,0.010375977
51.7675,0.07232666,0.02746582
51.768,0.092773438,0.047912598
51.7685,0.12298584,0.074768066
51.769,0.123901367,0.087280273
51.7695,0.105285645,0.080566406
51.77,0.107421875,0.079345703
51.7705,0.150146484,0.102233887
51.771,0.141601563,0.107421875
51.7715,0.123596191,0.103149414
51.772,0.122070313,0.107421875
51.7725,0.120239258,0.105895996
51.773,0.100402832,0.09552002
51.7735,0.09185791,0.086975098
51.774,0.069885254,0.069885254
51.7745,0.034790039,0.047912598
51.775,0.00793457,0.03112793
51.7755,-0.012207031,0.012512207
51.776,-0.015258789,0.004882813
51.7765,-0.033874512,-0.008850098
51.777,-0.054321289,-0.028076172
51.7775,-0.068969727,-0.043029785
51.778,-0.09185791,-0.057983398
51.7785,-0.125732422,-0.081176758
51.779,-0.130004883,-0.093688965
51.7795,-0.109863281,-0.087280273
51.78,-0.111694336,-0.087585449
51.7805,-0.150756836,-0.11138916
51.781,-0.145874023,-0.119934082
51.7815,-0.12878418,-0.111694336
51.782,-0.127868652,-0.108337402
51.7825,-0.124206543,-0.107727051
51.783,-0.104980469,-0.095825195
51.7835,-0.094909668,-0.090026855
51.784,-0.074157715,-0.075378418
51.7845,-0.037231445,-0.05065918
51.785,-0.012207031,-0.027770996
51.7855,0.008544922,-0.009155273
51.786,0.012817383,-0.000610352
51.7865,0.024414063,0.012207031
51.787,0.047607422,0.030212402
51.7875,0.065307617,0.044555664
51.788,0.088500977,0.060424805
51.7885,0.115661621,0.081176758
51.789,0.121459961,0.090637207
51.7895,0.101928711,0.083618164
51.79,0.103759766,0.082092285
51.7905,0.147399902,0.107727051
51.791,0.140380859,0.117797852
51.7915,0.124206543,0.113525391
51.792,0.125732422,0.113525391
51.7925,0.121154785,0.11505127
51.793,0.10345459,0.108642578
51.7935,0.09185791,0.111083984
51.794,0.068969727,0.101623535
51.7945,0.036315918,0.076293945
51.795,0.008544922,0.053710938
51.7955,-0.011291504,0.030822754
51.796,-0.013122559,0.016479492
51.7965,-0.034179688,-0.002746582
51.797,-0.053710938,-0.02532959
51.7975,-0.065307617,-0.039978027
51.798,-0.089111328,-0.058898926
51.7985,-0.117797852,-0.088500977
51.799,-0.119628906,-0.106811523
51.7995,-0.100402832,-0.101318359
51.8,-0.103149414,-0.098266602
51.8005,-0.142211914,-0.117797852
51.801,-0.137329102,-0.118103027
51.8015,-0.124206543,-0.105895996
51.802,-0.124206543,-0.097961426
51.8025,-0.118103027,-0.09185791
51.803,-0.099487305,-0.077819824
51.8035,-0.09185791,-0.074157715
51.804,-0.070495605,-0.062561035
51.8045,-0.033874512,-0.041503906
51.805,-0.00793457,-0.027160645
51.8055,0.010986328,-0.014648438
51.806,0.015258789,-0.010986328
51.8065,0.028686523,0
51.807,0.050048828,0.012207031
51.8075,0.069885254,0.021972656
51.808,0.091552734,0.039367676
51.8085,0.120849609,0.062255859
51.809,0.121765137,0.079040527
51.8095,0.103759766,0.078125
51.81,0.106506348,0.078125
51.8105,0.145874023,0.107116699
51.811,0.137023926,0.115356445
51.8115,0.123596191,0.110168457
51.812,0.123901367,0.107116699
51.8125,0.120849609,0.106506348
51.813,0.100708008,0.09552002
51.8135,0.090942383,0.089111328
51.814,0.068664551,0.073547363
51.8145,0.034790039,0.051269531
51.815,0.006408691,0.028381348
51.8155,-0.013427734,0.006103516
51.816,-0.017700195,-0.003051758
51.8165,-0.034790039,-0.017089844
51.817,-0.055236816,-0.03326416
51.8175,-0.069580078,-0.044555664
51.818,-0.086975098,-0.057067871
51.8185,-0.118713379,-0.082092285
51.819,-0.120849609,-0.091552734
51.8195,-0.10345459,-0.082397461
51.82,-0.104980469,-0.081176758
51.8205,-0.144042969,-0.111083984
51.821,-0.13458252,-0.121154785
51.8215,-0.120239258,-0.114746094
51.822,-0.122375488,-0.112915039
51.8225,-0.116882324,-0.111083984
51.823,-0.09765625,-0.099182129
51.8235,-0.08972168,-0.092163086
51.824,-0.069885254,-0.078735352
51.8245,-0.032348633,-0.056762695
51.825,-0.006408691,-0.03692627
51.8255,0.014648438,-0.018615723
51.826,0.018005371,-0.010070801
51.8265,0.032958984,0.003051758
51.827,0.053405762,0.021057129
51.8275,0.072631836,0.034484863
51.828,0.094299316,0.050354004
51.8285,0.12298584,0.074157715
51.829,0.12298584,0.084228516
51.8295,0.106506348,0.075378418
51.83,0.108337402,0.071105957
51.8305,0.148010254,0.093383789
51.831,0.140991211,0.100402832
51.8315,0.125732422,0.094299316
51.832,0.124816895,0.094909668
51.8325,0.11932373,0.094604492
51.833,0.100402832,0.087890625
51.8335,0.093078613,0.085144043
51.834,0.071105957,0.072937012
51.8345,0.038146973,0.051879883
51.835,0.012207031,0.031433105
51.8355,-0.008239746,0.014953613
51.836,-0.014648438,0.007324219
51.8365,-0.033569336,-0.008239746
51.837,-0.055541992,-0.027770996
51.8375,-0.068664551,-0.038757324
51.838,-0.092773438,-0.055541992
51.8385,-0.123901367,-0.07598877
51.839,-0.127868652,-0.083007813
51.8395,-0.108337402,-0.07232666
51.84,-0.109863281,-0.06439209
51.8405,-0.146789551,-0.086364746
51.841,-0.138244629,-0.094909668
51.8415,-0.122375488,-0.088806152
51.842,-0.121154785,-0.088806152
51.8425,-0.11932373,-0.090332031
51.843,-0.101013184,-0.088195801
51.8435,-0.09185791,-0.090332031
51.844,-0.069580078,-0.080871582
51.8445,-0.03326416,-0.057067871
51.845,-0.00793457,-0.04119873
51.8455,0.01159668,-0.026550293
51.846,0.015869141,-0.020141602
51.8465,0.030822754,-0.006408691
51.847,0.050964355,0.010070801
51.8475,0.070800781,0.024719238
51.848,0.091247559,0.043029785
51.8485,0.121459961,0.07019043
51.849,0.124511719,0.087585449
51.8495,0.106811523,0.085449219
51.85,0.108032227,0.08972168
51.8505,0.145568848,0.115661621
51.851,0.137329102,0.118103027
51.8515,0.120544434,0.106506348
51.852,0.119934082,0.101318359
51.8525,0.116882324,0.104675293
51.853,0.09765625,0.100708008
51.8535,0.084838867,0.09979248
51.854,0.064086914,0.086669922
51.8545,0.032043457,0.06072998
51.855,0.006408691,0.036621094
51.8555,-0.01373291,0.015563965
51.856,-0.01739502,0.005493164
51.8565,-0.036315918,-0.008850098
51.857,-0.058898926,-0.025939941
51.8575,-0.07232666,-0.036621094
51.858,-0.090332031,-0.052490234
51.8585,-0.12298584,-0.081481934
51.859,-0.126647949,-0.098571777
51.8595,-0.108032227,-0.090942383
51.86,-0.108642578,-0.089111328
51.8605,-0.145568848,-0.107727051
51.861,-0.13885498,-0.113830566
51.8615,-0.12298584,-0.107116699
51.862,-0.121154785,-0.104980469
51.8625,-0.117492676,-0.100402832
51.863,-0.097961426,-0.090637207
