Time,EMG_zyg,EMG_cor
130.0005,-0.086669922,-0.086669922
130.001,-0.089111328,-0.086669922
130.0015,-0.084533691,-0.086975098
130.002,-0.071105957,-0.076904297
130.0025,-0.065612793,-0.072937012
130.003,-0.053100586,-0.067138672
130.0035,-0.028991699,-0.044555664
130.004,-0.009460449,-0.027160645
130.0045,0.004577637,-0.014343262
130.005,0.012512207,-0.006408691
130.0055,0.019836426,-0.00213623
130.006,0.034179688,0.010681152
130.0065,0.046386719,0.022888184
130.007,0.062255859,0.037536621
130.0075,0.080871582,0.058288574
130.008,0.084228516,0.069885254
130.0085,0.07019043,0.064086914
130.009,0.07232666,0.064086914
130.0095,0.103759766,0.085144043
130.01,0.098266602,0.091247559
130.0105,0.084533691,0.08392334
130.011,0.08605957,0.083618164
130.0115,0.088195801,0.086364746
130.012,0.073852539,0.077209473
130.0125,0.066833496,0.073852539
130.013,0.053100586,0.066223145
130.0135,0.028991699,0.049133301
130.014,0.007019043,0.03112793
130.0145,-0.004882813,0.020446777
130.015,-0.009765625,0.012512207
130.0155,-0.017089844,0.004577637
130.016,-0.033874512,-0.010375977
130.0165,-0.045166016,-0.020751953
130.017,-0.061035156,-0.036010742
130.0175,-0.080566406,-0.057678223
130.018,-0.081176758,-0.071105957
130.0185,-0.067749023,-0.06652832
130.019,-0.070800781,-0.066833496
130.0195,-0.102539063,-0.087585449
130.02,-0.09979248,-0.094299316
130.0205,-0.086975098,-0.088195801
130.021,-0.087890625,-0.089111328
130.0215,-0.089111328,-0.087890625
130.022,-0.074462891,-0.079040527
130.0225,-0.068664551,-0.073242188
130.023,-0.054016113,-0.067749023
130.0235,-0.025939941,-0.050964355
130.024,-0.006713867,-0.033569336
130.0245,0.006408691,-0.018005371
130.025,0.012512207,-0.009765625
130.0255,0.019226074,-0.000915527
130.026,0.032043457,0.011291504
130.0265,0.043334961,0.022888184
130.027,0.061645508,0.037841797
130.0275,0.082397461,0.057678223
130.028,0.088500977,0.065917969
130.0285,0.070800781,0.061645508
130.029,0.075073242,0.062561035
130.0295,0.109558105,0.083007813
130.03,0.101928711,0.091552734
130.0305,0.090637207,0.08605957
130.031,0.092773438,0.086975098
130.0315,0.091247559,0.089416504
130.032,0.079956055,0.081787109
130.0325,0.07019043,0.07598877
130.033,0.056152344,0.06439209
130.0335,0.032653809,0.045471191
130.034,0.01373291,0.028686523
130.0345,0.000610352,0.018310547
130.035,-0.008544922,0.007629395
130.0355,-0.01739502,0
130.036,-0.034484863,-0.013427734
130.0365,-0.04486084,-0.027160645
130.037,-0.061950684,-0.03692627
130.0375,-0.082397461,-0.056152344
130.038,-0.086975098,-0.071411133
130.0385,-0.071105957,-0.068969727
130.039,-0.073547363,-0.066833496
130.0395,-0.102233887,-0.087890625
130.04,-0.095825195,-0.094299316
130.0405,-0.084533691,-0.088806152
130.041,-0.086975098,-0.091247559
130.0415,-0.084838867,-0.09185791
130.042,-0.070800781,-0.081787109
130.0425,-0.062866211,-0.078125
130.043,-0.051269531,-0.067443848
130.0435,-0.02532959,-0.048828125
130.044,-0.004577637,-0.034790039
130.0445,0.007019043,-0.022888184
130.045,0.013122559,-0.010070801
130.0455,0.01953125,-0.003662109
130.046,0.035095215,0.010375977
130.0465,0.044250488,0.01953125
130.047,0.061645508,0.033569336
130.0475,0.082397461,0.051574707
130.048,0.084838867,0.061645508
130.0485,0.071411133,0.055847168
130.049,0.073852539,0.054626465
130.0495,0.10559082,0.08026123
130.05,0.098266602,0.086364746
130.0505,0.085449219,0.080566406
130.051,0.087280273,0.084228516
130.0515,0.087585449,0.089111328
130.052,0.075073242,0.08026123
130.0525,0.065612793,0.076904297
130.053,0.051269531,0.065002441
130.0535,0.025634766,0.047607422
130.054,0.007324219,0.028991699
130.0545,-0.005493164,0.015258789
130.055,-0.012817383,0.00579834
130.0555,-0.024108887,-0.003967285
130.056,-0.038757324,-0.020141602
130.0565,-0.049743652,-0.02746582
130.057,-0.06439209,-0.040283203
130.0575,-0.082702637,-0.064086914
130.058,-0.087890625,-0.074462891
130.0585,-0.078430176,-0.072937012
130.059,-0.079650879,-0.07598877
130.0595,-0.11138916,-0.098876953
130.06,-0.105895996,-0.107727051
130.0605,-0.092773438,-0.102844238
130.061,-0.09552002,-0.103149414
130.0615,-0.093688965,-0.101623535
130.062,-0.08026123,-0.090942383
130.0625,-0.075378418,-0.085754395
130.063,-0.061035156,-0.073547363
130.0635,-0.032043457,-0.052490234
130.064,-0.013427734,-0.033874512
130.0645,-0.000915527,-0.020141602
130.065,0.004577637,-0.01159668
130.0655,0.010681152,-0.006713867
130.066,0.026855469,0.008544922
130.0665,0.041809082,0.017700195
130.067,0.060119629,0.030822754
130.0675,0.080871582,0.048522949
130.068,0.083618164,0.057678223
130.0685,0.068969727,0.053710938
130.069,0.070800781,0.05279541
130.0695,0.106201172,0.076293945
130.07,0.098876953,0.081176758
130.0705,0.083312988,0.073242188
130.071,0.085144043,0.073547363
130.0715,0.081787109,0.072937012
130.072,0.065917969,0.063476563
130.0725,0.059204102,0.058898926
130.073,0.044555664,0.049133301
130.0735,0.018920898,0.032958984
130.074,0.000610352,0.019226074
130.0745,-0.009460449,0.011291504
130.075,-0.018920898,0.000610352
130.0755,-0.026855469,-0.00793457
130.076,-0.041503906,-0.020446777
130.0765,-0.05065918,-0.032043457
130.077,-0.068054199,-0.045166016
130.0775,-0.087585449,-0.065612793
130.078,-0.09185791,-0.077514648
130.0785,-0.078430176,-0.073547363
130.079,-0.079345703,-0.074157715
130.0795,-0.110778809,-0.095214844
130.08,-0.105895996,-0.103759766
130.0805,-0.092163086,-0.100097656
130.081,-0.096435547,-0.101623535
130.0815,-0.093688965,-0.101928711
130.082,-0.079650879,-0.093383789
130.0825,-0.075378418,-0.088195801
130.083,-0.061645508,-0.082397461
130.0835,-0.036010742,-0.062866211
130.084,-0.015563965,-0.043640137
130.0845,-0.001525879,-0.029296875
130.085,0.005187988,-0.02166748
130.0855,0.009155273,-0.017700195
130.086,0.022888184,-0.008239746
130.0865,0.039367676,0.006713867
130.087,0.05645752,0.021057129
130.0875,0.078430176,0.043029785
130.088,0.081481934,0.054931641
130.0885,0.07019043,0.050048828
130.089,0.07232666,0.050048828
130.0895,0.105285645,0.070495605
130.09,0.100097656,0.073852539
130.0905,0.089111328,0.069580078
130.091,0.091552734,0.072631836
130.0915,0.087280273,0.074157715
130.092,0.073242188,0.065002441
130.0925,0.06439209,0.059814453
130.093,0.049133301,0.048828125
130.0935,0.024414063,0.030822754
130.094,0.005493164,0.016479492
130.0945,-0.006408691,0.005187988
130.095,-0.016174316,-0.003356934
130.0955,-0.024719238,-0.010375977
130.096,-0.040588379,-0.023193359
130.0965,-0.050964355,-0.033569336
130.097,-0.068969727,-0.045471191
130.0975,-0.090026855,-0.065612793
130.098,-0.093994141,-0.076599121
130.0985,-0.080566406,-0.069885254
130.099,-0.080566406,-0.071105957
130.0995,-0.111083984,-0.091552734
130.1,-0.104370117,-0.097961426
130.1005,-0.09185791,-0.092163086
130.101,-0.092163086,-0.090942383
130.1015,-0.08972168,-0.092773438
130.102,-0.076293945,-0.087280273
130.1025,-0.071411133,-0.084838867
130.103,-0.058898926,-0.079040527
130.1035,-0.031433105,-0.060119629
130.104,-0.011291504,-0.043334961
130.1045,0.001831055,-0.032348633
130.105,0.008544922,-0.024719238
130.1055,0.01373291,-0.018615723
130.106,0.030517578,-0.004882813
130.1065,0.040893555,0.008850098
130.107,0.058288574,0.022277832
130.1075,0.075683594,0.040588379
130.108,0.078735352,0.051574707
130.1085,0.067138672,0.048828125
130.109,0.068664551,0.051879883
130.1095,0.101013184,0.077819824
130.11,0.095825195,0.081176758
130.1105,0.083312988,0.074768066
130.111,0.084228516,0.078430176
130.1115,0.083312988,0.08026123
130.112,0.067749023,0.075378418
130.1125,0.061035156,0.070800781
130.113,0.046691895,0.057983398
130.1135,0.020751953,0.038757324
130.114,0.003051758,0.022277832
130.1145,-0.008544922,0.010681152
130.115,-0.015563965,0.003356934
130.1155,-0.024414063,-0.002746582
130.116,-0.04119873,-0.020141602
130.1165,-0.049743652,-0.030822754
130.117,-0.066223145,-0.044250488
130.1175,-0.085144043,-0.063781738
130.118,-0.087890625,-0.07598877
130.1185,-0.073852539,-0.072631836
130.119,-0.07598877,-0.071411133
130.1195,-0.10925293,-0.09185791
130.12,-0.104370117,-0.099487305
130.1205,-0.08972168,-0.091552734
130.121,-0.09185791,-0.092163086
130.1215,-0.087280273,-0.096435547
130.122,-0.071105957,-0.088806152
130.1225,-0.068359375,-0.084228516
130.123,-0.054626465,-0.072937012
130.1235,-0.028076172,-0.054321289
130.124,-0.010070801,-0.037536621
130.1245,0.005493164,-0.022277832
130.125,0.010986328,-0.013122559
130.1255,0.017089844,-0.006103516
130.126,0.030212402,0.004272461
130.1265,0.042419434,0.014038086
130.127,0.06072998,0.028381348
130.1275,0.081787109,0.046691895
130.128,0.087280273,0.058288574
130.1285,0.073852539,0.056152344
130.129,0.075073242,0.056762695
130.1295,0.106506348,0.079956055
130.13,0.100402832,0.087890625
130.1305,0.084838867,0.077819824
130.131,0.086975098,0.076904297
130.1315,0.084838867,0.079650879
130.132,0.072021484,0.072937012
130.1325,0.063171387,0.069274902
130.133,0.049438477,0.060119629
130.1335,0.023803711,0.041503906
130.134,0.006408691,0.025634766
130.1345,-0.007629395,0.012207031
130.135,-0.015563965,0.004272461
130.1355,-0.024108887,-0.000915527
130.136,-0.038452148,-0.011901855
130.1365,-0.047302246,-0.022888184
130.137,-0.06439209,-0.034179688
130.1375,-0.08605957,-0.053710938
130.138,-0.088806152,-0.064697266
130.1385,-0.076904297,-0.060424805
130.139,-0.077514648,-0.057983398
130.1395,-0.10925293,-0.081787109
130.14,-0.102539063,-0.086364746
130.1405,-0.08972168,-0.083312988
130.141,-0.093078613,-0.08392334
130.1415,-0.091552734,-0.085144043
130.142,-0.077819824,-0.078125
130.1425,-0.073852539,-0.075683594
130.143,-0.060119629,-0.069274902
130.1435,-0.033874512,-0.050964355
130.144,-0.01373291,-0.034790039
130.1445,-0.000915527,-0.020751953
130.145,0.006103516,-0.012512207
130.1455,0.009765625,-0.010070801
130.146,0.026550293,0.003662109
130.1465,0.039978027,0.014343262
130.147,0.058288574,0.029296875
130.1475,0.076904297,0.046386719
130.148,0.080566406,0.060119629
130.1485,0.068359375,0.054321289
130.149,0.071411133,0.054626465
130.1495,0.102844238,0.081176758
130.15,0.094604492,0.088195801
130.1505,0.080871582,0.082397461
130.151,0.081787109,0.085144043
130.1515,0.081481934,0.086669922
130.152,0.067138672,0.080566406
130.1525,0.061645508,0.075683594
130.153,0.04486084,0.067138672
130.1535,0.022583008,0.047912598
130.154,0.001220703,0.032653809
130.1545,-0.010986328,0.01953125
130.155,-0.018005371,0.012512207
130.1555,-0.028381348,0.002746582
130.156,-0.043640137,-0.012207031
130.1565,-0.054626465,-0.021972656
130.157,-0.07019043,-0.034179688
130.1575,-0.087890625,-0.052490234
130.158,-0.093383789,-0.064697266
130.1585,-0.081176758,-0.061035156
130.159,-0.082397461,-0.060119629
130.1595,-0.110778809,-0.082092285
130.16,-0.103149414,-0.091552734
130.1605,-0.092163086,-0.087890625
130.161,-0.093078613,-0.087890625
130.1615,-0.087890625,-0.092163086
130.162,-0.073852539,-0.087585449
130.1625,-0.068969727,-0.083312988
130.163,-0.055541992,-0.076904297
130.1635,-0.029602051,-0.059204102
130.164,-0.012817383,-0.040283203
130.1645,0.002746582,-0.023803711
130.165,0.008239746,-0.016784668
130.1655,0.015563965,-0.008239746
130.166,0.028686523,0.004882813
130.1665,0.043945313,0.014953613
130.167,0.062255859,0.029907227
130.1675,0.081787109,0.051879883
130.168,0.084533691,0.064697266
130.1685,0.070800781,0.061035156
130.169,0.07232666,0.061035156
130.1695,0.103759766,0.084228516
130.17,0.09765625,0.09185791
130.1705,0.086364746,0.086669922
130.171,0.087280273,0.085144043
130.1715,0.083007813,0.08605957
130.172,0.07232666,0.078430176
130.1725,0.063476563,0.073852539
130.173,0.05065918,0.062866211
130.1735,0.02532959,0.044250488
130.174,0.008239746,0.026855469
130.1745,-0.004272461,0.014953613
130.175,-0.009155273,0.00793457
130.1755,-0.01953125,-0.000915527
130.176,-0.032653809,-0.014343262
130.1765,-0.041809082,-0.021057129
130.177,-0.059509277,-0.032653809
130.1775,-0.080566406,-0.051879883
130.178,-0.082702637,-0.063781738
130.1785,-0.071716309,-0.059814453
130.179,-0.071716309,-0.058898926
130.1795,-0.102539063,-0.082702637
130.18,-0.096740723,-0.090637207
130.1805,-0.085144043,-0.083618164
130.181,-0.086975098,-0.086669922
130.1815,-0.083312988,-0.08605957
130.182,-0.071411133,-0.076904297
130.1825,-0.065002441,-0.074768066
130.183,-0.051574707,-0.06652832
130.1835,-0.026550293,-0.050048828
130.184,-0.00793457,-0.031738281
130.1845,0.005187988,-0.016784668
130.185,0.010986328,-0.007324219
130.1855,0.016174316,0.000915527
130.186,0.032348633,0.015258789
130.1865,0.040588379,0.025939941
130.187,0.059204102,0.039672852
130.1875,0.079650879,0.059509277
130.188,0.085144043,0.068054199
130.1885,0.072631836,0.062561035
130.189,0.072937012,0.064086914
130.1895,0.103759766,0.084228516
130.19,0.098571777,0.090637207
130.1905,0.088195801,0.083007813
130.191,0.086975098,0.084838867
130.1915,0.084533691,0.086669922
130.192,0.07019043,0.079345703
130.1925,0.063171387,0.07232666
130.193,0.048522949,0.061645508
130.1935,0.024719238,0.045166016
130.194,0.003662109,0.032653809
130.1945,-0.004577637,0.023803711
130.195,-0.011901855,0.01373291
130.1955,-0.019226074,0.004577637
130.196,-0.034484863,-0.010375977
130.1965,-0.045166016,-0.02166748
130.197,-0.06072998,-0.035095215
130.1975,-0.081787109,-0.054626465
130.198,-0.083007813,-0.068054199
130.1985,-0.068664551,-0.063781738
130.199,-0.071716309,-0.061645508
130.1995,-0.104675293,-0.082702637
130.2,-0.098876953,-0.089416504
130.2005,-0.085449219,-0.083007813
130.201,-0.087280273,-0.085754395
130.2015,-0.086364746,-0.090637207
130.202,-0.074157715,-0.081481934
130.2025,-0.068664551,-0.077209473
130.203,-0.054626465,-0.066833496
130.2035,-0.027770996,-0.047912598
130.204,-0.008544922,-0.030822754
130.2045,0.004882813,-0.015563965
130.205,0.009765625,-0.006103516
130.2055,0.016479492,0.002746582
130.206,0.030822754,0.013427734
130.2065,0.045166016,0.026550293
130.207,0.061950684,0.037536621
130.2075,0.083618164,0.058898926
130.208,0.084838867,0.069580078
130.2085,0.072021484,0.065307617
130.209,0.075683594,0.063476563
130.2095,0.109558105,0.087585449
130.21,0.102539063,0.097045898
130.2105,0.088806152,0.089416504
130.211,0.090026855,0.089416504
130.2115,0.086669922,0.089416504
130.212,0.074462891,0.079956055
130.2125,0.068054199,0.075378418
130.213,0.051879883,0.06652832
130.2135,0.027160645,0.04699707
130.214,0.009155273,0.028381348
130.2145,-0.003051758,0.013427734
130.215,-0.00793457,0.004882813
130.2155,-0.020141602,-0.003051758
130.216,-0.035400391,-0.014343262
130.2165,-0.04699707,-0.023803711
130.217,-0.063171387,-0.036315918
130.2175,-0.083312988,-0.057067871
130.218,-0.086364746,-0.069580078
130.2185,-0.07232666,-0.065307617
130.219,-0.072631836,-0.062561035
130.2195,-0.105285645,-0.085449219
130.22,-0.100708008,-0.092163086
130.2205,-0.087890625,-0.08605957
130.221,-0.087890625,-0.08972168
130.2215,-0.08392334,-0.088195801
130.222,-0.07019043,-0.078125
130.2225,-0.062866211,-0.073852539
130.223,-0.051574707,-0.063171387
130.2235,-0.026245117,-0.04486084
130.224,-0.008239746,-0.028381348
130.2245,0.004577637,-0.016784668
130.225,0.011901855,-0.008544922
130.2255,0.018615723,-0.004272461
130.226,0.034179688,0.008544922
130.2265,0.046386719,0.020751953
130.227,0.06439209,0.03326416
130.2275,0.083312988,0.051879883
130.228,0.087585449,0.062561035
130.2285,0.07598877,0.054321289
130.229,0.077514648,0.054626465
130.2295,0.108337402,0.08026123
130.23,0.101318359,0.086975098
130.2305,0.087280273,0.079650879
130.231,0.089111328,0.078430176
130.2315,0.089416504,0.081481934
130.232,0.075683594,0.076904297
130.2325,0.068359375,0.073547363
130.233,0.053100586,0.062866211
130.2335,0.029296875,0.043945313
130.234,0.010070801,0.026245117
130.2345,-0.000610352,0.016479492
130.235,-0.008544922,0.009460449
130.2355,-0.018920898,0.00213623
130.236,-0.033569336,-0.011901855
130.2365,-0.042114258,-0.022277832
130.237,-0.058898926,-0.035095215
130.2375,-0.078735352,-0.052490234
130.238,-0.083007813,-0.063171387
130.2385,-0.069580078,-0.060119629
130.239,-0.069580078,-0.059204102
130.2395,-0.102233887,-0.082397461
130.24,-0.094299316,-0.091247559
130.2405,-0.086669922,-0.083007813
130.241,-0.087890625,-0.08392334
130.2415,-0.083007813,-0.087585449
130.242,-0.069580078,-0.078430176
130.2425,-0.06439209,-0.073242188
130.243,-0.049743652,-0.063171387
130.2435,-0.025024414,-0.046386719
130.244,-0.005493164,-0.029296875
130.2445,0.010681152,-0.013427734
130.245,0.016479492,-0.006408691
130.2455,0.018310547,0.002441406
130.246,0.033569336,0.016784668
130.2465,0.046081543,0.030517578
130.247,0.062866211,0.046081543
130.2475,0.08026123,0.065612793
130.248,0.08605957,0.076293945
130.2485,0.073547363,0.069580078
130.249,0.075073242,0.068359375
130.2495,0.10559082,0.090637207
130.25,0.099182129,0.095825195
130.2505,0.086975098,0.087585449
130.251,0.08972168,0.085754395
130.2515,0.088195801,0.087585449
130.252,0.076599121,0.079345703
130.2525,0.067443848,0.072631836
130.253,0.056152344,0.061035156
130.2535,0.030212402,0.045471191
130.254,0.010986328,0.028076172
130.2545,-0.000305176,0.01373291
130.255,-0.009765625,0.003967285
130.2555,-0.01953125,-0.004882813
130.256,-0.03692627,-0.020751953
130.2565,-0.046386719,-0.028381348
130.257,-0.064086914,-0.040283203
130.2575,-0.083007813,-0.060119629
130.258,-0.088500977,-0.068664551
130.2585,-0.074768066,-0.062866211
130.259,-0.074157715,-0.063476563
130.2595,-0.104370117,-0.08605957
130.26,-0.09979248,-0.093383789
130.2605,-0.08972168,-0.089111328
130.261,-0.090942383,-0.089111328
130.2615,-0.086669922,-0.089416504
130.262,-0.072937012,-0.084228516
130.2625,-0.068664551,-0.08026123
130.263,-0.055847168,-0.070495605
130.2635,-0.030212402,-0.051574707
130.264,-0.011291504,-0.035400391
130.2645,0.004272461,-0.021972656
130.265,0.009765625,-0.012207031
130.2655,0.016479492,-0.008850098
130.266,0.032043457,0.001220703
130.2665,0.041503906,0.01159668
130.267,0.059509277,0.024719238
130.2675,0.079650879,0.043640137
130.268,0.083312988,0.056762695
130.2685,0.070495605,0.054321289
130.269,0.069274902,0.053710938
130.2695,0.100402832,0.079040527
130.27,0.094604492,0.086364746
130.2705,0.083007813,0.082702637
130.271,0.083618164,0.082092285
130.2715,0.08026123,0.084533691
130.272,0.068969727,0.074157715
130.2725,0.060119629,0.069274902
130.273,0.045776367,0.057678223
130.2735,0.022277832,0.040893555
130.274,0.004577637,0.026550293
130.2745,-0.006408691,0.012207031
130.275,-0.014648438,0.003662109
130.2755,-0.022583008,-0.006103516
130.276,-0.039367676,-0.021972656
130.2765,-0.048217773,-0.030212402
130.277,-0.064697266,-0.043029785
130.2775,-0.084533691,-0.061340332
130.278,-0.092163086,-0.074462891
130.2785,-0.079345703,-0.068359375
130.279,-0.079345703,-0.064697266
130.2795,-0.110168457,-0.085754395
130.28,-0.104370117,-0.094299316
130.2805,-0.092163086,-0.090026855
130.281,-0.094909668,-0.088500977
130.2815,-0.093994141,-0.092163086
130.282,-0.079040527,-0.083007813
130.2825,-0.074768066,-0.077514648
130.283,-0.061340332,-0.06652832
130.2835,-0.034179688,-0.049743652
130.284,-0.014648438,-0.032348633
130.2845,-0.000915527,-0.020141602
130.285,0.006103516,-0.010986328
130.2855,0.014038086,-0.007324219
130.286,0.027770996,0.004882813
130.2865,0.040588379,0.014953613
130.287,0.060424805,0.028991699
130.2875,0.076599121,0.046691895
130.288,0.081176758,0.056762695
130.2885,0.067138672,0.050354004
130.289,0.067138672,0.047912598
130.2895,0.101623535,0.07232666
130.29,0.097045898,0.082092285
130.2905,0.083312988,0.07598877
130.291,0.084838867,0.072937012
130.2915,0.086364746,0.076904297
130.292,0.07019043,0.072021484
130.2925,0.064086914,0.067443848
130.293,0.05065918,0.055236816
130.2935,0.02532959,0.03692627
130.294,0.00579834,0.020446777
130.2945,-0.004272461,0.010070801
130.295,-0.014953613,0.004882813
130.2955,-0.023803711,-0.003051758
130.296,-0.037841797,-0.017700195
130.2965,-0.046081543,-0.023803711
130.297,-0.064086914,-0.039367676
130.2975,-0.084228516,-0.06072998
130.298,-0.090332031,-0.071411133
130.2985,-0.077819824,-0.06439209
130.299,-0.08026123,-0.062866211
130.2995,-0.111999512,-0.086669922
130.3,-0.107421875,-0.094604492
130.3005,-0.094604492,-0.090332031
130.301,-0.093383789,-0.092773438
130.3015,-0.091247559,-0.094299316
130.302,-0.077209473,-0.085754395
130.3025,-0.070800781,-0.081787109
130.303,-0.058898926,-0.074157715
130.3035,-0.034179688,-0.055847168
130.304,-0.01373291,-0.039367676
130.3045,-0.002746582,-0.024414063
130.305,0.004577637,-0.012207031
130.3055,0.010375977,-0.003967285
130.306,0.024719238,0.007324219
130.3065,0.039367676,0.020751953
130.307,0.057067871,0.037536621
130.3075,0.07598877,0.059509277
130.308,0.081176758,0.071411133
130.3085,0.068359375,0.065002441
130.309,0.068969727,0.061645508
130.3095,0.100097656,0.08605957
130.31,0.092163086,0.091247559
130.3105,0.079650879,0.081481934
130.311,0.081481934,0.079650879
130.3115,0.08026123,0.079956055
130.312,0.066223145,0.074157715
130.3125,0.059204102,0.068969727
130.313,0.043945313,0.057678223
130.3135,0.02166748,0.038146973
130.314,0.000610352,0.021057129
130.3145,-0.010375977,0.008239746
130.315,-0.018615723,-0.000915527
130.3155,-0.027160645,-0.010375977
130.316,-0.042419434,-0.023803711
130.3165,-0.051269531,-0.030822754
130.317,-0.065002441,-0.044250488
130.3175,-0.083312988,-0.062561035
130.318,-0.08972168,-0.073547363
130.3185,-0.078430176,-0.068969727
130.319,-0.080871582,-0.065917969
130.3195,-0.108947754,-0.086975098
130.32,-0.100402832,-0.093688965
130.3205,-0.090637207,-0.086669922
130.321,-0.09185791,-0.086975098
130.3215,-0.087280273,-0.090942383
130.322,-0.075073242,-0.079956055
130.3225,-0.070495605,-0.076293945
130.323,-0.05645752,-0.067138672
130.3235,-0.031738281,-0.050048828
130.324,-0.012817383,-0.031738281
130.3245,0.000610352,-0.01953125
130.325,0.00793457,-0.009155273
130.3255,0.01159668,-0.005493164
130.326,0.028076172,0.006713867
130.3265,0.041809082,0.016174316
130.327,0.058288574,0.028381348
130.3275,0.077819824,0.046081543
130.328,0.081481934,0.057373047
130.3285,0.07019043,0.053100586
130.329,0.068359375,0.050354004
130.3295,0.101928711,0.075683594
130.33,0.095214844,0.081787109
130.3305,0.082702637,0.072937012
130.331,0.084228516,0.073242188
130.3315,0.083618164,0.077514648
130.332,0.069580078,0.069885254
130.3325,0.065002441,0.06652832
130.333,0.050964355,0.055847168
130.3335,0.027160645,0.040588379
130.334,0.007324219,0.025024414
130.3345,-0.004882813,0.009155273
130.335,-0.014648438,0.001220703
130.3355,-0.022888184,-0.006713867
130.336,-0.038757324,-0.019226074
130.3365,-0.047912598,-0.026245117
130.337,-0.064086914,-0.037841797
130.3375,-0.086669922,-0.057373047
130.338,-0.092163086,-0.068664551
130.3385,-0.074768066,-0.062561035
130.339,-0.077209473,-0.061645508
130.3395,-0.108642578,-0.083618164
130.34,-0.101928711,-0.090942383
130.3405,-0.088500977,-0.083312988
130.341,-0.090026855,-0.079650879
130.3415,-0.087280273,-0.079040527
130.342,-0.069885254,-0.07232666
130.3425,-0.065612793,-0.068664551
130.343,-0.052490234,-0.060424805
130.3435,-0.028381348,-0.043640137
130.344,-0.009460449,-0.024719238
130.3445,0.002746582,-0.015258789
130.345,0.011291504,-0.008239746
130.3455,0.015869141,-0.003356934
130.346,0.031738281,0.011291504
130.3465,0.04486084,0.023498535
130.347,0.062255859,0.034790039
130.3475,0.082397461,0.053100586
130.348,0.084533691,0.061340332
130.3485,0.070495605,0.055847168
130.349,0.071716309,0.052185059
130.3495,0.107421875,0.076293945
130.35,0.100708008,0.083312988
130.3505,0.088195801,0.075378418
130.351,0.090637207,0.080871582
130.3515,0.089111328,0.085144043
130.352,0.07232666,0.08026123
130.3525,0.068664551,0.075073242
130.353,0.053405762,0.067138672
130.3535,0.028076172,0.048217773
130.354,0.009155273,0.031433105
130.3545,-0.002746582,0.018310547
130.355,-0.008850098,0.008850098
130.3555,-0.017700195,0.003051758
130.356,-0.032348633,-0.011291504
130.3565,-0.044555664,-0.020751953
130.357,-0.059204102,-0.034179688
130.3575,-0.079956055,-0.055847168
130.358,-0.087280273,-0.067138672
130.3585,-0.071716309,-0.062561035
130.359,-0.074768066,-0.063476563
130.3595,-0.107116699,-0.08605957
130.36,-0.101623535,-0.09552002
130.3605,-0.088806152,-0.087890625
130.361,-0.08972168,-0.088195801
130.3615,-0.08972168,-0.090332031
130.362,-0.075378418,-0.083312988
130.3625,-0.068969727,-0.080566406
130.363,-0.05279541,-0.071105957
130.3635,-0.027160645,-0.055541992
130.364,-0.007629395,-0.038757324
130.3645,0.005493164,-0.026550293
130.365,0.013122559,-0.017089844
130.3655,0.018310547,-0.007629395
130.366,0.032043457,0.004577637
130.3665,0.046081543,0.018310547
130.367,0.061950684,0.035705566
130.3675,0.079345703,0.054626465
130.368,0.083007813,0.06652832
130.3685,0.07019043,0.061340332
130.369,0.070495605,0.057373047
130.3695,0.101013184,0.080566406
130.37,0.093994141,0.085754395
130.3705,0.084228516,0.08026123
130.371,0.083312988,0.083312988
130.3715,0.083312988,0.085449219
130.372,0.068969727,0.076904297
130.3725,0.061645508,0.069580078
130.373,0.04699707,0.062866211
130.3735,0.023803711,0.045471191
130.374,0.004577637,0.029907227
130.3745,-0.009765625,0.017089844
130.375,-0.016174316,0.007324219
130.3755,-0.024414063,0.002441406
130.376,-0.039367676,-0.009765625
130.3765,-0.048217773,-0.01739502
130.377,-0.06652832,-0.03112793
130.3775,-0.086669922,-0.05279541
130.378,-0.090332031,-0.065917969
130.3785,-0.079345703,-0.058288574
130.379,-0.081481934,-0.055236816
130.3795,-0.113525391,-0.077819824
130.38,-0.109558105,-0.084838867
130.3805,-0.096130371,-0.081481934
130.381,-0.097045898,-0.083312988
130.3815,-0.093078613,-0.084533691
130.382,-0.078125,-0.079040527
130.3825,-0.072021484,-0.075683594
130.383,-0.057983398,-0.066833496
130.3835,-0.032043457,-0.048522949
130.384,-0.014038086,-0.030517578
130.3845,0.00213623,-0.017089844
130.385,0.005493164,-0.00793457
130.3855,0.012817383,0.001525879
130.386,0.029602051,0.014343262
130.3865,0.043029785,0.026245117
130.387,0.06072998,0.040283203
130.3875,0.081787109,0.058288574
130.388,0.087585449,0.067749023
130.3885,0.073547363,0.063781738
130.389,0.072021484,0.067138672
130.3895,0.105285645,0.090332031
130.39,0.098876953,0.09765625
130.3905,0.082702637,0.090637207
130.391,0.086975098,0.086975098
130.3915,0.083618164,0.089416504
130.392,0.071411133,0.076599121
130.3925,0.064697266,0.070800781
130.393,0.052185059,0.061950684
130.3935,0.028991699,0.045166016
130.394,0.007629395,0.028381348
130.3945,-0.002746582,0.014953613
130.395,-0.009155273,0.004577637
130.3955,-0.018920898,-0.004272461
130.396,-0.033569336,-0.018920898
130.3965,-0.046386719,-0.027770996
130.397,-0.063476563,-0.038452148
130.3975,-0.085754395,-0.060119629
130.398,-0.08972168,-0.070800781
130.3985,-0.072937012,-0.067749023
130.399,-0.07232666,-0.065002441
130.3995,-0.106506348,-0.085449219
130.4,-0.100097656,-0.09185791
130.4005,-0.088195801,-0.086975098
130.401,-0.089416504,-0.087280273
130.4015,-0.087890625,-0.08605957
130.402,-0.073852539,-0.07598877
130.4025,-0.068054199,-0.068054199
130.403,-0.053710938,-0.060424805
130.4035,-0.029296875,-0.042724609
130.404,-0.007324219,-0.029296875
130.4045,0.00579834,-0.016174316
130.405,0.012817383,-0.006408691
130.4055,0.014343262,-0.001525879
130.406,0.033569336,0.01159668
130.4065,0.035705566,0.021362305
130.407,0.054626465,0.034179688
130.4075,0.075378418,0.055847168
130.408,0.08026123,0.069580078
130.4085,0.068054199,0.065612793
130.409,0.068664551,0.065307617
130.4095,0.102844238,0.089111328
130.41,0.095825195,0.096130371
130.4105,0.083007813,0.08972168
130.411,0.087280273,0.091247559
130.4115,0.084838867,0.092468262
130.412,0.070495605,0.083618164
130.4125,0.062561035,0.079345703
130.413,0.04699707,0.070495605
130.4135,0.023803711,0.050964355
130.414,0.005187988,0.034179688
130.4145,-0.007019043,0.021972656
130.415,-0.014343262,0.01373291
130.4155,-0.024108887,0.003356934
130.416,-0.03692627,-0.011291504
130.4165,-0.04699707,-0.021057129
130.417,-0.063171387,-0.033569336
130.4175,-0.083312988,-0.053100586
130.418,-0.087280273,-0.068664551
130.4185,-0.074462891,-0.06439209
130.419,-0.075073242,-0.064697266
130.4195,-0.106811523,-0.086364746
130.42,-0.101318359,-0.092468262
130.4205,-0.086975098,-0.085449219
130.421,-0.08972168,-0.08392334
130.4215,-0.088806152,-0.082702637
130.422,-0.072937012,-0.075073242
130.4225,-0.068664551,-0.069885254
130.423,-0.056152344,-0.060424805
130.4235,-0.028991699,-0.044555664
130.424,-0.013122559,-0.028686523
130.4245,0.001525879,-0.014038086
130.425,0.008850098,-0.00579834
130.4255,0.015258789,-0.001220703
130.426,0.028991699,0.011291504
130.4265,0.043029785,0.022888184
130.427,0.061950684,0.035095215
130.4275,0.082092285,0.051269531
130.428,0.084533691,0.061950684
130.4285,0.074157715,0.057067871
130.429,0.075073242,0.057373047
130.4295,0.107116699,0.079345703
130.43,0.103759766,0.088500977
130.4305,0.091247559,0.083312988
130.431,0.091552734,0.084838867
130.4315,0.091552734,0.090026855
130.432,0.077514648,0.088195801
130.4325,0.068054199,0.085449219
130.433,0.052185059,0.075683594
130.4335,0.027770996,0.059204102
130.434,0.010070801,0.039978027
130.4345,-0.002746582,0.026855469
130.435,-0.008850098,0.014648438
130.4355,-0.01739502,0.006713867
130.436,-0.034179688,-0.006713867
130.4365,-0.044250488,-0.017700195
130.437,-0.061645508,-0.032348633
130.4375,-0.081176758,-0.054626465
130.438,-0.087585449,-0.066223145
130.4385,-0.074157715,-0.059204102
130.439,-0.074157715,-0.060119629
130.4395,-0.105285645,-0.082092285
130.44,-0.09979248,-0.09185791
130.4405,-0.088500977,-0.086364746
130.441,-0.086975098,-0.08392334
130.4415,-0.084228516,-0.084838867
130.442,-0.072021484,-0.078430176
130.4425,-0.066833496,-0.075073242
130.443,-0.054626465,-0.063781738
130.4435,-0.030822754,-0.045776367
130.444,-0.014648438,-0.029602051
130.4445,-0.001220703,-0.020141602
130.445,0.00793457,-0.010986328
130.4455,0.016784668,-0.004577637
130.446,0.028381348,0.009155273
130.4465,0.041503906,0.021057129
130.447,0.059814453,0.034179688
130.4475,0.073852539,0.053710938
130.448,0.077209473,0.065002441
130.4485,0.064086914,0.062255859
130.449,0.06652832,0.059509277
130.4495,0.09979248,0.080566406
130.45,0.093994141,0.086364746
130.4505,0.080871582,0.078125
130.451,0.081481934,0.08026123
130.4515,0.084228516,0.083312988
130.452,0.071716309,0.077209473
130.4525,0.063781738,0.072631836
130.453,0.048828125,0.063476563
130.4535,0.022277832,0.04699707
130.454,0.006103516,0.030822754
130.4545,-0.004272461,0.019836426
130.455,-0.010986328,0.011901855
130.4555,-0.019836426,0.004882813
130.456,-0.035705566,-0.009765625
130.4565,-0.04699707,-0.020141602
130.457,-0.063171387,-0.029602051
130.4575,-0.083007813,-0.049438477
130.458,-0.088500977,-0.062561035
130.4585,-0.075683594,-0.057373047
130.459,-0.074768066,-0.05645752
130.4595,-0.106506348,-0.081481934
130.46,-0.102233887,-0.088500977
130.4605,-0.090637207,-0.08605957
130.461,-0.093383789,-0.08972168
130.4615,-0.092773438,-0.093078613
130.462,-0.078735352,-0.085754395
130.4625,-0.069580078,-0.080871582
130.463,-0.058898926,-0.070495605
130.4635,-0.034484863,-0.051879883
130.464,-0.014953613,-0.03326416
130.4645,-0.000915527,-0.022277832
130.465,0.007019043,-0.014038086
130.4655,0.012817383,-0.005187988
130.466,0.029296875,0.009155273
130.4665,0.040283203,0.024719238
130.467,0.059204102,0.042419434
130.4675,0.077819824,0.064086914
130.468,0.08026123,0.074157715
130.4685,0.068054199,0.068664551
130.469,0.070800781,0.06652832
130.4695,0.102539063,0.087280273
130.47,0.09765625,0.092773438
130.4705,0.084228516,0.086364746
130.471,0.085754395,0.085449219
130.4715,0.085449219,0.087585449
130.472,0.071105957,0.079650879
130.4725,0.06439209,0.075683594
130.473,0.052490234,0.065612793
130.4735,0.027770996,0.045471191
130.474,0.00793457,0.026550293
130.4745,-0.005187988,0.016479492
130.475,-0.013427734,0.005187988
130.4755,-0.023498535,-0.002441406
130.476,-0.037231445,-0.014648438
130.4765,-0.047302246,-0.025634766
130.477,-0.062866211,-0.034179688
130.4775,-0.086364746,-0.055847168
130.478,-0.090332031,-0.063476563
130.4785,-0.075378418,-0.057067871
130.479,-0.075073242,-0.054931641
130.4795,-0.106201172,-0.074768066
130.48,-0.103759766,-0.08392334
130.4805,-0.091247559,-0.079345703
130.481,-0.092163086,-0.082092285
130.4815,-0.092163086,-0.08392334
130.482,-0.07598877,-0.076599121
130.4825,-0.072937012,-0.071105957
130.483,-0.06072998,-0.062255859
130.4835,-0.036621094,-0.047302246
130.484,-0.018615723,-0.030822754
130.4845,-0.005493164,-0.016784668
130.485,0.002746582,-0.007019043
130.4855,0.009155273,-0.003356934
130.486,0.024108887,0.009155273
130.4865,0.038452148,0.01953125
130.487,0.056152344,0.034179688
130.4875,0.073852539,0.053710938
130.488,0.076904297,0.06652832
130.4885,0.065917969,0.063171387
130.489,0.067138672,0.059814453
130.4895,0.101318359,0.081481934
130.49,0.097351074,0.088500977
130.4905,0.083618164,0.081787109
130.491,0.082702637,0.081176758
130.4915,0.087585449,0.083007813
130.492,0.075378418,0.074768066
130.4925,0.067749023,0.071411133
130.493,0.054931641,0.06072998
130.4935,0.029907227,0.040283203
130.494,0.010681152,0.023803711
130.4945,0.000915527,0.009765625
130.495,-0.006713867,0.001831055
130.4955,-0.016174316,-0.005493164
130.496,-0.03112793,-0.019836426
130.4965,-0.04119873,-0.030822754
130.497,-0.057983398,-0.043029785
130.4975,-0.079040527,-0.06439209
130.498,-0.085449219,-0.078430176
130.4985,-0.07232666,-0.074462891
130.499,-0.072021484,-0.071716309
130.4995,-0.104370117,-0.093688965
130.5,-0.101013184,-0.099487305
130.5005,-0.088806152,-0.08972168
130.501,-0.087890625,-0.086975098
130.5015,-0.086669922,-0.084533691
130.502,-0.070495605,-0.078125
130.5025,-0.063476563,-0.073242188
130.503,-0.051879883,-0.067749023
130.5035,-0.026245117,-0.048522949
130.504,-0.009155273,-0.033569336
130.5045,0.003662109,-0.021972656
130.505,0.010986328,-0.008850098
130.5055,0.01739502,-0.005187988
130.506,0.035705566,0.006713867
130.5065,0.047912598,0.017089844
130.507,0.064086914,0.032348633
130.5075,0.082702637,0.053710938
130.508,0.08972168,0.06652832
130.5085,0.07598877,0.062561035
130.509,0.076599121,0.059814453
130.5095,0.108032227,0.079650879
130.51,0.101013184,0.087890625
130.5105,0.088195801,0.083312988
130.511,0.086975098,0.082702637
130.5115,0.086669922,0.084533691
130.512,0.073547363,0.077209473
130.5125,0.066223145,0.071411133
130.513,0.051879883,0.063781738
130.5135,0.026245117,0.048522949
130.514,0.008239746,0.034179688
130.5145,-0.002746582,0.022277832
130.515,-0.010375977,0.011291504
130.5155,-0.016784668,0.004882813
130.516,-0.03326416,-0.006713867
130.5165,-0.043334961,-0.017089844
130.517,-0.05645752,-0.031433105
130.5175,-0.077514648,-0.050964355
130.518,-0.082092285,-0.061645508
130.5185,-0.068664551,-0.05859375
130.519,-0.068664551,-0.056152344
130.5195,-0.096435547,-0.079345703
130.52,-0.092163086,-0.089416504
130.5205,-0.079345703,-0.085449219
130.521,-0.083007813,-0.086364746
130.5215,-0.081481934,-0.086669922
130.522,-0.066223145,-0.078430176
130.5225,-0.062255859,-0.074462891
130.523,-0.049133301,-0.06652832
130.5235,-0.024108887,-0.048828125
130.524,-0.007019043,-0.032348633
130.5245,0.00793457,-0.01739502
130.525,0.012817383,-0.008850098
130.5255,0.018005371,-0.003051758
130.526,0.033569336,0.00793457
130.5265,0.047302246,0.01739502
130.527,0.062255859,0.032653809
130.5275,0.081481934,0.048522949
130.528,0.085144043,0.05645752
130.5285,0.074157715,0.053405762
130.529,0.075683594,0.053710938
130.5295,0.108032227,0.078735352
130.53,0.102844238,0.087280273
130.5305,0.090026855,0.08026123
130.531,0.092468262,0.082397461
130.5315,0.09185791,0.084838867
130.532,0.077209473,0.076904297
130.5325,0.067749023,0.07232666
130.533,0.05279541,0.063476563
130.5335,0.028686523,0.046386719
130.534,0.010681152,0.031433105
130.5345,-0.001525879,0.01739502
130.535,-0.010681152,0.00579834
130.5355,-0.019836426,-0.001831055
130.536,-0.036010742,-0.014038086
130.5365,-0.045776367,-0.02532959
130.537,-0.065002441,-0.037841797
130.5375,-0.085449219,-0.056152344
130.538,-0.08972168,-0.069580078
130.5385,-0.07598877,-0.063476563
130.539,-0.077209473,-0.063781738
130.5395,-0.108947754,-0.085144043
130.54,-0.105285645,-0.095214844
130.5405,-0.092773438,-0.08972168
130.541,-0.095825195,-0.090332031
130.5415,-0.093688965,-0.091247559
130.542,-0.08026123,-0.082092285
130.5425,-0.073852539,-0.078735352
130.543,-0.061950684,-0.071105957
130.5435,-0.036621094,-0.051879883
130.544,-0.018310547,-0.040588379
130.5445,-0.00213623,-0.025024414
130.545,0.003967285,-0.016784668
130.5455,0.009460449,-0.01159668
130.546,0.025634766,0.004272461
130.5465,0.039978027,0.018005371
130.547,0.056762695,0.033874512
130.5475,0.073547363,0.052490234
130.548,0.077514648,0.06439209
130.5485,0.062866211,0.05645752
130.549,0.065002441,0.057373047
130.5495,0.09765625,0.079650879
130.55,0.090026855,0.088806152
130.5505,0.078430176,0.082702637
130.551,0.077514648,0.083007813
130.5515,0.079040527,0.085449219
130.552,0.068664551,0.082092285
130.5525,0.062866211,0.079345703
130.553,0.049743652,0.071411133
130.5535,0.028991699,0.054931641
130.554,0.009155273,0.037231445
130.5545,-0.003967285,0.026245117
130.555,-0.014038086,0.01953125
130.5555,-0.019836426,0.009460449
130.556,-0.033874512,-0.006408691
130.5565,-0.04486084,-0.018005371
130.557,-0.061340332,-0.032653809
130.5575,-0.082702637,-0.053405762
130.558,-0.085144043,-0.065002441
130.5585,-0.071411133,-0.061645508
130.559,-0.070495605,-0.061035156
130.5595,-0.104370117,-0.084838867
130.56,-0.09979248,-0.095214844
130.5605,-0.088195801,-0.087280273
130.561,-0.089111328,-0.085754395
130.5615,-0.088195801,-0.083007813
130.562,-0.073852539,-0.071105957
130.5625,-0.068664551,-0.067749023
130.563,-0.055236816,-0.057983398
130.5635,-0.028381348,-0.038452148
130.564,-0.008544922,-0.022277832
130.5645,0.008239746,-0.007629395
130.565,0.013427734,0.003967285
130.5655,0.018310547,0.010070801
130.566,0.03326416,0.020141602
130.5665,0.045166016,0.032043457
130.567,0.061950684,0.046081543
130.5675,0.082092285,0.063781738
130.568,0.087280273,0.073852539
130.5685,0.076293945,0.068664551
130.569,0.076293945,0.068054199
130.5695,0.109863281,0.091247559
130.57,0.103149414,0.099487305
130.5705,0.089111328,0.093994141
130.571,0.091552734,0.094299316
130.5715,0.090942383,0.09552002
130.572,0.077514648,0.090637207
130.5725,0.072937012,0.089416504
130.573,0.059509277,0.077819824
130.5735,0.037536621,0.061340332
130.574,0.01739502,0.042419434
130.5745,0.00579834,0.030822754
130.575,-0.002441406,0.020446777
130.5755,-0.009765625,0.013427734
130.576,-0.025634766,-0.001525879
130.5765,-0.036315918,-0.01373291
130.577,-0.05279541,-0.024108887
130.5775,-0.072937012,-0.044250488
130.578,-0.078735352,-0.057373047
130.5785,-0.061645508,-0.05279541
130.579,-0.061340332,-0.048217773
130.5795,-0.093994141,-0.065307617
130.58,-0.087890625,-0.072631836
130.5805,-0.075073242,-0.067138672
130.581,-0.078430176,-0.067443848
130.5815,-0.077209473,-0.071411133
130.582,-0.066223145,-0.064697266
130.5825,-0.057983398,-0.060119629
130.583,-0.043334961,-0.051574707
130.5835,-0.018005371,-0.034179688
130.584,0.001831055,-0.020446777
130.5845,0.018005371,-0.009155273
130.585,0.022277832,-0.00213623
130.5855,0.026245117,0.003356934
130.586,0.040893555,0.015258789
130.5865,0.054016113,0.025939941
130.587,0.071411133,0.040283203
130.5875,0.093078613,0.059204102
130.588,0.096435547,0.071716309
130.5885,0.083312988,0.065917969
130.589,0.082397461,0.06439209
130.5895,0.11138916,0.089111328
130.59,0.10559082,0.097351074
130.5905,0.093688965,0.091247559
130.591,0.094299316,0.090332031
130.5915,0.094299316,0.091552734
130.592,0.079650879,0.087585449
130.5925,0.073547363,0.083007813
130.593,0.059509277,0.070800781
130.5935,0.034484863,0.051269531
130.594,0.014953613,0.034484863
130.5945,0.003051758,0.020446777
130.595,-0.004272461,0.012207031
130.5955,-0.012207031,0.004882813
130.596,-0.030212402,-0.008239746
130.5965,-0.041809082,-0.016479492
130.597,-0.057678223,-0.028381348
130.5975,-0.077514648,-0.048522949
130.598,-0.081481934,-0.062866211
130.5985,-0.068054199,-0.058288574
130.599,-0.069274902,-0.057373047
130.5995,-0.101318359,-0.079040527
130.6,-0.096435547,-0.088195801
130.6005,-0.085449219,-0.083312988
130.601,-0.085754395,-0.082702637
130.6015,-0.08392334,-0.085449219
130.602,-0.070495605,-0.075683594
130.6025,-0.063476563,-0.072937012
130.603,-0.050048828,-0.062255859
130.6035,-0.023498535,-0.043334961
130.604,-0.004882813,-0.027160645
130.6045,0.009155273,-0.016479492
130.605,0.017700195,-0.00793457
130.6055,0.02166748,-0.003356934
130.606,0.035705566,0.009460449
130.6065,0.050048828,0.021972656
130.607,0.065917969,0.033569336
130.6075,0.084838867,0.050964355
130.608,0.090026855,0.061645508
130.6085,0.07598877,0.06072998
130.609,0.077209473,0.061645508
130.6095,0.108947754,0.08605957
130.61,0.104064941,0.093383789
130.6105,0.090942383,0.089416504
130.611,0.092163086,0.088500977
130.6115,0.091247559,0.092468262
130.612,0.077209473,0.084838867
130.6125,0.068664551,0.081176758
130.613,0.054931641,0.069580078
130.6135,0.032653809,0.049743652
130.614,0.014648438,0.034179688
130.6145,0.002441406,0.022277832
130.615,-0.007629395,0.013427734
130.6155,-0.015258789,0.006408691
130.616,-0.032348633,-0.008239746
130.6165,-0.044250488,-0.018615723
130.617,-0.058288574,-0.03112793
130.6175,-0.077819824,-0.050354004
130.618,-0.083007813,-0.061950684
130.6185,-0.07232666,-0.054931641
130.619,-0.07232666,-0.054626465
130.6195,-0.103759766,-0.078430176
130.62,-0.09979248,-0.08605957
130.6205,-0.088500977,-0.081481934
130.621,-0.088806152,-0.079650879
130.6215,-0.089111328,-0.077819824
130.622,-0.075683594,-0.072631836
130.6225,-0.07019043,-0.067749023
130.623,-0.057067871,-0.062561035
130.6235,-0.028686523,-0.048217773
130.624,-0.011901855,-0.03326416
130.6245,0.001220703,-0.020751953
130.625,0.008850098,-0.009460449
130.6255,0.015258789,-0.006103516
130.626,0.027770996,0.008544922
130.6265,0.042724609,0.02532959
130.627,0.06072998,0.038757324
130.6275,0.08026123,0.057067871
130.628,0.084838867,0.068054199
130.6285,0.073242188,0.065002441
130.629,0.072937012,0.063476563
130.6295,0.105895996,0.08605957
130.63,0.100097656,0.093383789
130.6305,0.08605957,0.086364746
130.631,0.086364746,0.084228516
130.6315,0.087890625,0.086975098
130.632,0.073852539,0.079956055
130.6325,0.068664551,0.076599121
130.633,0.051879883,0.067138672
130.6335,0.029907227,0.049438477
130.634,0.011901855,0.030822754
130.6345,-0.001525879,0.019226074
130.635,-0.00793457,0.013122559
130.6355,-0.018920898,0.007019043
130.636,-0.034484863,-0.008850098
130.6365,-0.043334961,-0.021057129
130.637,-0.06072998,-0.032958984
130.6375,-0.08026123,-0.053100586
130.638,-0.084838867,-0.066223145
130.6385,-0.074462891,-0.062255859
130.639,-0.07232666,-0.059814453
130.6395,-0.101623535,-0.081481934
130.64,-0.098571777,-0.092468262
130.6405,-0.084838867,-0.087890625
130.641,-0.086669922,-0.088806152
130.6415,-0.087585449,-0.091552734
130.642,-0.075073242,-0.085144043
130.6425,-0.07019043,-0.079345703
130.643,-0.057067871,-0.070800781
130.6435,-0.029296875,-0.051574707
130.644,-0.011901855,-0.032653809
130.6445,0.002746582,-0.016784668
130.645,0.011291504,-0.003051758
130.6455,0.015869141,0.000915527
130.646,0.028991699,0.011901855
130.6465,0.042419434,0.02166748
130.647,0.06072998,0.036010742
130.6475,0.080871582,0.053710938
130.648,0.084533691,0.068054199
130.6485,0.072631836,0.06439209
130.649,0.077514648,0.063476563
130.6495,0.106506348,0.086669922
130.65,0.102539063,0.092773438
130.6505,0.090942383,0.086364746
130.651,0.087890625,0.08392334
130.6515,0.089111328,0.08392334
130.652,0.078430176,0.079650879
130.6525,0.069274902,0.075073242
130.653,0.054626465,0.065002441
130.6535,0.030822754,0.047302246
130.654,0.010681152,0.032653809
130.6545,0.000305176,0.022888184
130.655,-0.007629395,0.013122559
130.6555,-0.017700195,0.003356934
130.656,-0.032043457,-0.01159668
130.6565,-0.042724609,-0.020751953
130.657,-0.056762695,-0.032043457
130.6575,-0.078430176,-0.051879883
130.658,-0.081481934,-0.062255859
130.6585,-0.067749023,-0.057983398
130.659,-0.066223145,-0.057678223
130.6595,-0.098266602,-0.080566406
130.66,-0.093383789,-0.087585449
130.6605,-0.08026123,-0.083618164
130.661,-0.083007813,-0.084533691
130.6615,-0.082092285,-0.08605957
130.662,-0.068359375,-0.080566406
130.6625,-0.06439209,-0.076599121
130.663,-0.050964355,-0.068359375
130.6635,-0.022583008,-0.050354004
130.664,-0.003967285,-0.034790039
130.6645,0.010070801,-0.021362305
130.665,0.016479492,-0.010681152
130.6655,0.020446777,-0.000915527
130.666,0.035095215,0.01373291
130.6665,0.049438477,0.026245117
130.667,0.065612793,0.040588379
130.6675,0.084228516,0.059814453
130.668,0.085754395,0.071716309
130.6685,0.073852539,0.066223145
130.669,0.07598877,0.065612793
130.6695,0.107116699,0.087280273
130.67,0.101623535,0.094909668
130.6705,0.08392334,0.087890625
130.671,0.088195801,0.088806152
130.6715,0.087890625,0.08972168
130.672,0.073547363,0.080566406
130.6725,0.065307617,0.072937012
130.673,0.052490234,0.065612793
130.6735,0.030212402,0.04699707
130.674,0.01159668,0.027160645
130.6745,-0.000915527,0.016174316
130.675,-0.008239746,0.007324219
130.6755,-0.014343262,0.002441406
130.676,-0.029907227,-0.009460449
130.6765,-0.041503906,-0.022277832
130.677,-0.057373047,-0.032653809
130.6775,-0.080871582,-0.05065918
130.678,-0.086975098,-0.061645508
130.6785,-0.074157715,-0.05645752
130.679,-0.073852539,-0.053100586
130.6795,-0.10559082,-0.074768066
130.68,-0.104064941,-0.08392334
130.6805,-0.088806152,-0.079956055
130.681,-0.088500977,-0.078735352
130.6815,-0.087585449,-0.080871582
130.682,-0.072021484,-0.072631836
130.6825,-0.067443848,-0.067443848
130.683,-0.052490234,-0.060119629
130.6835,-0.026550293,-0.043640137
130.684,-0.006103516,-0.029296875
130.6845,0.008850098,-0.017089844
130.685,0.015563965,-0.008850098
130.6855,0.021057129,-0.002441406
130.686,0.035095215,0.011291504
130.6865,0.04699707,0.022888184
130.687,0.065917969,0.036010742
130.6875,0.084838867,0.054931641
130.688,0.090332031,0.069274902
130.6885,0.076599121,0.066223145
130.689,0.077209473,0.062561035
130.6895,0.10925293,0.085449219
130.69,0.104675293,0.09185791
130.6905,0.091247559,0.085754395
130.691,0.089416504,0.088195801
130.6915,0.087585449,0.091552734
130.692,0.073547363,0.084838867
130.6925,0.066833496,0.081481934
130.693,0.051879883,0.068359375
130.6935,0.027770996,0.053405762
130.694,0.010070801,0.037231445
130.6945,-0.003051758,0.026245117
130.695,-0.009765625,0.015258789
130.6955,-0.017089844,0.008850098
130.696,-0.031433105,-0.006408691
130.6965,-0.044250488,-0.015258789
130.697,-0.060424805,-0.029602051
130.6975,-0.08026123,-0.047912598
130.698,-0.085144043,-0.059509277
130.6985,-0.071411133,-0.054931641
130.699,-0.072937012,-0.055541992
130.6995,-0.10345459,-0.079040527
130.7,-0.097961426,-0.088195801
130.7005,-0.08972168,-0.085144043
130.701,-0.088806152,-0.084228516
130.7015,-0.087585449,-0.083007813
130.702,-0.07232666,-0.075683594
130.7025,-0.065917969,-0.071411133
130.703,-0.054626465,-0.061035156
130.7035,-0.029907227,-0.043945313
130.704,-0.010375977,-0.028076172
130.7045,0.003662109,-0.011901855
130.705,0.009155273,-0.001831055
130.7055,0.014953613,0.00213623
130.706,0.03112793,0.011901855
130.7065,0.046081543,0.021972656
130.707,0.063781738,0.036010742
130.7075,0.082092285,0.05279541
130.708,0.087585449,0.063476563
130.7085,0.075683594,0.060119629
130.709,0.074462891,0.059814453
130.7095,0.108337402,0.081481934
130.71,0.104064941,0.091247559
130.7105,0.090026855,0.083312988
130.711,0.090026855,0.081481934
130.7115,0.089111328,0.082397461
130.712,0.073242188,0.073547363
130.7125,0.064697266,0.066833496
130.713,0.052490234,0.05645752
130.7135,0.025939941,0.041809082
130.714,0.007019043,0.025634766
130.7145,-0.005187988,0.014648438
130.715,-0.011291504,0.007324219
130.7155,-0.019836426,0.000610352
130.716,-0.03692627,-0.012207031
130.7165,-0.048522949,-0.021362305
130.717,-0.064086914,-0.033569336
130.7175,-0.081787109,-0.052490234
130.718,-0.08605957,-0.065917969
130.7185,-0.07232666,-0.063476563
130.719,-0.071716309,-0.062255859
130.7195,-0.104675293,-0.085754395
130.72,-0.101013184,-0.092468262
130.7205,-0.088806152,-0.08392334
130.721,-0.088806152,-0.084228516
130.7215,-0.089111328,-0.085449219
130.722,-0.077209473,-0.076293945
130.7225,-0.07019043,-0.071411133
130.723,-0.057373047,-0.062255859
130.7235,-0.032653809,-0.045471191
130.724,-0.010375977,-0.028076172
130.7245,0.005187988,-0.013122559
130.725,0.011291504,-0.005493164
130.7255,0.015869141,-0.000915527
130.726,0.030517578,0.009155273
130.7265,0.043640137,0.021362305
130.727,0.061645508,0.03692627
130.7275,0.079345703,0.05279541
130.728,0.085449219,0.064697266
130.7285,0.07598877,0.062866211
130.729,0.074768066,0.062255859
130.7295,0.105285645,0.086669922
130.73,0.102233887,0.094909668
130.7305,0.088806152,0.089111328
130.731,0.089416504,0.088195801
130.7315,0.089111328,0.090332031
130.732,0.072937012,0.083312988
130.7325,0.064697266,0.079650879
130.733,0.050964355,0.068054199
130.7335,0.028381348,0.05065918
130.734,0.008850098,0.035705566
130.7345,-0.005493164,0.024414063
130.735,-0.014038086,0.019226074
130.7355,-0.020751953,0.010681152
130.736,-0.03692627,-0.005187988
130.7365,-0.047302246,-0.017089844
130.737,-0.062561035,-0.029602051
130.7375,-0.083312988,-0.048828125
130.738,-0.088500977,-0.06439209
130.7385,-0.076293945,-0.059509277
130.739,-0.076599121,-0.058288574
130.7395,-0.108947754,-0.081481934
130.74,-0.105285645,-0.093383789
130.7405,-0.08972168,-0.085449219
130.741,-0.090942383,-0.084838867
130.7415,-0.089416504,-0.084228516
130.742,-0.075683594,-0.078125
130.7425,-0.070800781,-0.073547363
130.743,-0.058898926,-0.064086914
130.7435,-0.03326416,-0.045776367
130.744,-0.015563965,-0.028991699
130.7445,0.000915527,-0.016174316
130.745,0.009765625,-0.008239746
130.7455,0.014953613,-0.004882813
130.746,0.03326416,0.009765625
130.7465,0.042114258,0.018310547
130.747,0.057067871,0.028686523
130.7475,0.077514648,0.046386719
130.748,0.081481934,0.057067871
130.7485,0.069885254,0.055236816
130.749,0.07232666,0.055236816
130.7495,0.105285645,0.080566406
130.75,0.10345459,0.085449219
130.7505,0.089111328,0.079650879
130.751,0.08972168,0.081176758
130.7515,0.08972168,0.085144043
130.752,0.076293945,0.078125
130.7525,0.067443848,0.072631836
130.753,0.053405762,0.062561035
130.7535,0.029296875,0.042419434
130.754,0.007629395,0.022888184
130.7545,-0.001220703,0.007629395
130.755,-0.010375977,-0.000305176
130.7555,-0.019226074,-0.006408691
130.756,-0.033569336,-0.01953125
130.7565,-0.041503906,-0.025939941
130.757,-0.055236816,-0.035705566
130.7575,-0.076599121,-0.053710938
130.758,-0.083007813,-0.064697266
130.7585,-0.073242188,-0.062255859
130.759,-0.072021484,-0.063476563
130.7595,-0.102539063,-0.085449219
130.76,-0.102844238,-0.096130371
130.7605,-0.09185791,-0.090942383
130.761,-0.09185791,-0.092163086
130.7615,-0.091247559,-0.092773438
130.762,-0.076599121,-0.085754395
130.7625,-0.070495605,-0.079345703
130.763,-0.05859375,-0.07019043
130.7635,-0.034484863,-0.050354004
130.764,-0.016479492,-0.034484863
130.7645,-0.001220703,-0.02166748
130.765,0.009155273,-0.012207031
130.7655,0.012207031,-0.004272461
130.766,0.029602051,0.010986328
130.7665,0.045471191,0.023498535
130.767,0.061950684,0.034790039
130.7675,0.079650879,0.053405762
130.768,0.084533691,0.06652832
130.7685,0.071411133,0.061035156
130.769,0.072937012,0.059509277
130.7695,0.104675293,0.080566406
130.77,0.098876953,0.087890625
130.7705,0.086669922,0.082092285
130.771,0.086975098,0.080871582
130.7715,0.087585449,0.083007813
130.772,0.075378418,0.076293945
130.7725,0.067443848,0.07019043
130.773,0.05279541,0.061340332
130.7735,0.029296875,0.046691895
130.774,0.010375977,0.032958984
130.7745,-0.004577637,0.022888184
130.775,-0.011901855,0.014038086
130.7755,-0.022277832,0.004882813
130.776,-0.035400391,-0.008544922
130.7765,-0.047607422,-0.020141602
130.777,-0.062561035,-0.032958984
130.7775,-0.081481934,-0.054626465
130.778,-0.088195801,-0.06652832
130.7785,-0.076293945,-0.059814453
130.779,-0.075683594,-0.059509277
130.7795,-0.105285645,-0.082397461
130.78,-0.102539063,-0.092163086
130.7805,-0.08972168,-0.087280273
130.781,-0.089416504,-0.087585449
130.7815,-0.088195801,-0.087280273
130.782,-0.075683594,-0.079040527
130.7825,-0.068664551,-0.075378418
130.783,-0.054016113,-0.065002441
130.7835,-0.028991699,-0.046081543
130.784,-0.010986328,-0.03112793
130.7845,0.003662109,-0.01953125
130.785,0.010070801,-0.010070801
130.7855,0.015869141,-0.00579834
130.786,0.032043457,0.008850098
130.7865,0.041809082,0.020751953
130.787,0.058898926,0.035705566
130.7875,0.079345703,0.057067871
130.788,0.085449219,0.068969727
130.7885,0.071105957,0.064697266
130.789,0.072937012,0.061950684
130.7895,0.107116699,0.08392334
130.79,0.102844238,0.088806152
130.7905,0.087585449,0.082092285
130.791,0.088806152,0.081787109
130.7915,0.090332031,0.085449219
130.792,0.077209473,0.081176758
130.7925,0.070495605,0.075378418
130.793,0.057067871,0.063781738
130.7935,0.032653809,0.045776367
130.794,0.01373291,0.028076172
130.7945,0.002746582,0.015563965
130.795,-0.00213623,0.008850098
130.7955,-0.010681152,0.002441406
130.796,-0.026855469,-0.009155273
130.7965,-0.037841797,-0.017700195
130.797,-0.054016113,-0.029602051
130.7975,-0.07232666,-0.047912598
130.798,-0.08026123,-0.060424805
130.7985,-0.064697266,-0.059204102
130.799,-0.065002441,-0.055847168
130.7995,-0.096130371,-0.072937012
130.8,-0.092773438,-0.083618164
130.8005,-0.079345703,-0.078430176
130.801,-0.079040527,-0.079956055
130.8015,-0.077514648,-0.080566406
130.802,-0.063171387,-0.074462891
130.8025,-0.058898926,-0.069885254
130.803,-0.043640137,-0.06439209
130.8035,-0.018310547,-0.048828125
130.804,-0.001525879,-0.032348633
130.8045,0.01159668,-0.021362305
130.805,0.017700195,-0.009155273
130.8055,0.021057129,-0.004272461
130.806,0.038757324,0.007019043
130.8065,0.05279541,0.019836426
130.807,0.066833496,0.032348633
130.8075,0.084533691,0.052490234
130.808,0.091247559,0.065612793
130.8085,0.077819824,0.062561035
130.809,0.079040527,0.059509277
130.8095,0.109863281,0.079345703
130.81,0.103759766,0.086669922
130.8105,0.089111328,0.078430176
130.811,0.092468262,0.077209473
130.8115,0.090942383,0.078430176
130.812,0.076293945,0.074157715
130.8125,0.071105957,0.073242188
130.813,0.05645752,0.064086914
130.8135,0.033569336,0.048217773
130.814,0.013122559,0.033874512
130.8145,0.000305176,0.021362305
130.815,-0.010375977,0.011901855
130.8155,-0.018920898,0.002441406
130.816,-0.033569336,-0.012207031
130.8165,-0.042419434,-0.021972656
130.817,-0.057983398,-0.032043457
130.8175,-0.076904297,-0.054016113
130.818,-0.084228516,-0.06652832
130.8185,-0.072937012,-0.061950684
130.819,-0.072937012,-0.06072998
130.8195,-0.102233887,-0.081176758
130.82,-0.09765625,-0.092163086
130.8205,-0.08392334,-0.086975098
130.821,-0.086975098,-0.08605957
130.8215,-0.083312988,-0.085144043
130.822,-0.071105957,-0.076293945
130.8225,-0.067138672,-0.071411133
130.823,-0.054321289,-0.063781738
130.8235,-0.028381348,-0.045166016
130.824,-0.010986328,-0.029296875
130.8245,0.003356934,-0.014953613
130.825,0.008850098,-0.006103516
130.8255,0.011901855,-0.000305176
130.826,0.029296875,0.012207031
130.8265,0.04119873,0.023498535
130.827,0.058898926,0.033569336
130.8275,0.077209473,0.052490234
130.828,0.083618164,0.065307617
130.8285,0.071105957,0.059204102
130.829,0.069580078,0.059509277
130.8295,0.104064941,0.08392334
130.83,0.101623535,0.095214844
130.8305,0.088195801,0.089416504
130.831,0.087585449,0.090026855
130.8315,0.087890625,0.089416504
130.832,0.075378418,0.084533691
130.8325,0.066833496,0.078430176
130.833,0.051879883,0.069274902
130.8335,0.028381348,0.050048828
130.834,0.007019043,0.035095215
130.8345,-0.004882813,0.020751953
130.835,-0.009155273,0.010986328
130.8355,-0.015563965,0.003356934
130.836,-0.032958984,-0.012512207
130.8365,-0.042724609,-0.021057129
130.837,-0.057678223,-0.030517578
130.8375,-0.076293945,-0.050048828
130.838,-0.081176758,-0.062561035
130.8385,-0.071411133,-0.05645752
130.839,-0.069274902,-0.057067871
130.8395,-0.101318359,-0.079650879
130.84,-0.099182129,-0.087890625
130.8405,-0.087890625,-0.081176758
130.841,-0.089111328,-0.080566406
130.8415,-0.087890625,-0.083312988
130.842,-0.072937012,-0.074768066
130.8425,-0.066223145,-0.07019043
130.843,-0.054016113,-0.062255859
130.8435,-0.02746582,-0.04486084
130.844,-0.008850098,-0.027770996
130.8445,0.003967285,-0.015258789
130.845,0.009765625,-0.007019043
130.8455,0.015869141,-0.003051758
130.846,0.03112793,0.008850098
130.8465,0.043334961,0.025634766
130.847,0.057373047,0.039367676
130.8475,0.077819824,0.059509277
130.848,0.084533691,0.07019043
130.8485,0.070800781,0.062255859
130.849,0.068664551,0.061340332
130.8495,0.103759766,0.085449219
130.85,0.098876953,0.094604492
130.8505,0.086975098,0.084228516
130.851,0.087585449,0.084838867
130.8515,0.084533691,0.086975098
130.852,0.07019043,0.078125
130.8525,0.061035156,0.072937012
130.853,0.046691895,0.065612793
130.8535,0.023498535,0.045776367
130.854,0.002746582,0.026855469
130.8545,-0.010681152,0.014038086
130.855,-0.018310547,0.004882813
130.8555,-0.025024414,-0.004882813
130.856,-0.042724609,-0.015869141
130.8565,-0.053100586,-0.024108887
130.857,-0.069274902,-0.035095215
130.8575,-0.08972168,-0.055541992
130.858,-0.096435547,-0.068054199
130.8585,-0.084533691,-0.063781738
130.859,-0.082702637,-0.061035156
130.8595,-0.112915039,-0.082092285
130.86,-0.10925293,-0.090332031
130.8605,-0.09765625,-0.085144043
130.861,-0.101013184,-0.086669922
130.8615,-0.098876953,-0.087585449
130.862,-0.085144043,-0.079040527
130.8625,-0.078430176,-0.075073242
130.863,-0.065002441,-0.068054199
130.8635,-0.035400391,-0.046691895
130.864,-0.014953613,-0.025939941
130.8645,-0.00213623,-0.01739502
130.865,0.003051758,-0.00793457
130.8655,0.010375977,-0.000915527
130.866,0.02746582,0.009765625
130.8665,0.039672852,0.020141602
130.867,0.055236816,0.03326416
130.8675,0.077209473,0.051269531
130.868,0.083312988,0.063171387
130.8685,0.07019043,0.057678223
130.869,0.070800781,0.05645752
130.8695,0.104370117,0.077514648
130.87,0.098876953,0.087280273
130.8705,0.086669922,0.079345703
130.871,0.091247559,0.083618164
130.8715,0.091247559,0.086669922
130.872,0.077819824,0.079956055
130.8725,0.070495605,0.076904297
130.873,0.056152344,0.065612793
130.8735,0.035095215,0.049743652
130.874,0.014038086,0.035400391
130.8745,0.000915527,0.025024414
130.875,-0.00579834,0.015258789
130.8755,-0.016174316,0.007629395
130.876,-0.031738281,-0.004577637
130.8765,-0.042724609,-0.017700195
130.877,-0.055541992,-0.028686523
130.8775,-0.079040527,-0.05279541
130.878,-0.084838867,-0.066833496
130.8785,-0.071105957,-0.061035156
130.879,-0.072021484,-0.059509277
130.8795,-0.101013184,-0.083007813
130.88,-0.098266602,-0.08972168
130.8805,-0.086364746,-0.082397461
130.881,-0.088500977,-0.082702637
130.8815,-0.088195801,-0.08392334
130.882,-0.072937012,-0.076904297
130.8825,-0.065612793,-0.075073242
130.883,-0.050964355,-0.068359375
130.8835,-0.024719238,-0.048828125
130.884,-0.008544922,-0.034484863
130.8845,0.004272461,-0.021057129
130.885,0.009765625,-0.012817383
130.8855,0.015563965,-0.007324219
130.886,0.033874512,0.006103516
130.8865,0.044250488,0.019226074
130.887,0.058898926,0.031433105
130.8875,0.077819824,0.05065918
130.888,0.083618164,0.063171387
130.8885,0.071716309,0.060424805
130.889,0.072631836,0.057678223
130.8895,0.10559082,0.081787109
130.89,0.102233887,0.090332031
130.8905,0.088806152,0.082702637
130.891,0.087890625,0.082397461
130.8915,0.085449219,0.08392334
130.892,0.075073242,0.077209473
130.8925,0.068359375,0.070800781
130.893,0.053100586,0.064086914
130.8935,0.029296875,0.043945313
130.894,0.010070801,0.029907227
130.8945,-0.001525879,0.018005371
130.895,-0.008850098,0.009765625
130.8955,-0.016784668,0.001525879
130.896,-0.032958984,-0.012512207
130.8965,-0.042419434,-0.024414063
130.897,-0.059204102,-0.03692627
130.8975,-0.079345703,-0.057678223
130.898,-0.087890625,-0.071716309
130.8985,-0.074768066,-0.069580078
130.899,-0.074462891,-0.064697266
130.8995,-0.10345459,-0.084838867
130.9,-0.09979248,-0.093078613
130.9005,-0.086364746,-0.087890625
130.901,-0.086364746,-0.083007813
130.9015,-0.084838867,-0.083618164
130.902,-0.070495605,-0.073547363
130.9025,-0.067138672,-0.07019043
130.903,-0.055236816,-0.065917969
130.9035,-0.028381348,-0.048217773
130.904,-0.009765625,-0.036621094
130.9045,0.004272461,-0.024414063
130.905,0.011901855,-0.014038086
130.9055,0.016479492,-0.007629395
130.906,0.031433105,0.006408691
130.9065,0.045471191,0.01739502
130.907,0.06072998,0.028381348
130.9075,0.081176758,0.046691895
130.908,0.087280273,0.059204102
130.9085,0.074157715,0.055541992
130.909,0.074768066,0.054321289
130.9095,0.10925293,0.081176758
130.91,0.106506348,0.094604492
130.9105,0.092468262,0.088806152
130.911,0.090942383,0.090637207
130.9115,0.090637207,0.090637207
130.912,0.077819824,0.084228516
130.9125,0.071105957,0.076904297
130.913,0.055541992,0.065917969
130.9135,0.033569336,0.047912598
130.914,0.014343262,0.029602051
130.9145,-0.000305176,0.015258789
130.915,-0.008239746,0.004577637
130.9155,-0.015869141,-0.002746582
130.916,-0.033569336,-0.015869141
130.9165,-0.041503906,-0.022888184
130.917,-0.057373047,-0.032653809
130.9175,-0.076904297,-0.052490234
130.918,-0.083312988,-0.061950684
130.9185,-0.070495605,-0.057373047
130.919,-0.069885254,-0.057983398
130.9195,-0.102233887,-0.077209473
130.92,-0.097351074,-0.08605957
130.9205,-0.087585449,-0.081481934
130.921,-0.087585449,-0.079345703
130.9215,-0.085144043,-0.083007813
130.922,-0.072021484,-0.076599121
130.9225,-0.065002441,-0.073242188
130.923,-0.053100586,-0.065307617
130.9235,-0.028076172,-0.047607422
130.924,-0.009765625,-0.032348633
130.9245,0.003967285,-0.017700195
130.925,0.012512207,-0.008239746
130.9255,0.015258789,-0.004882813
130.926,0.032348633,0.008544922
130.9265,0.046081543,0.021362305
130.927,0.061645508,0.036010742
130.9275,0.081787109,0.055236816
130.928,0.087890625,0.068359375
130.9285,0.074462891,0.066833496
130.929,0.072937012,0.064086914
130.9295,0.103759766,0.085754395
130.93,0.098876953,0.093994141
130.9305,0.087280273,0.086669922
130.931,0.087890625,0.084533691
130.9315,0.08605957,0.085144043
130.932,0.074768066,0.076599121
130.9325,0.068664551,0.071411133
130.933,0.055541992,0.063171387
130.9335,0.031433105,0.043945313
130.934,0.011901855,0.026855469
130.9345,-0.001831055,0.016174316
130.935,-0.010070801,0.008850098
130.9355,-0.017089844,0.001220703
130.936,-0.036010742,-0.016479492
130.9365,-0.04486084,-0.026245117
130.937,-0.059814453,-0.035705566
130.9375,-0.08026123,-0.05645752
130.938,-0.086669922,-0.068969727
130.9385,-0.074157715,-0.062866211
130.939,-0.074768066,-0.059814453
130.9395,-0.107421875,-0.081787109
130.94,-0.104064941,-0.091247559
130.9405,-0.08972168,-0.084533691
130.941,-0.089111328,-0.08605957
130.9415,-0.087585449,-0.087585449
130.942,-0.073242188,-0.079040527
130.9425,-0.067443848,-0.076293945
130.943,-0.053405762,-0.071716309
130.9435,-0.025634766,-0.052185059
130.944,-0.006103516,-0.03326416
130.9445,0.008850098,-0.017089844
130.945,0.015869141,-0.008239746
130.9455,0.01953125,-0.003051758
130.946,0.036010742,0.009460449
130.9465,0.049133301,0.020141602
130.947,0.062255859,0.031433105
130.9475,0.081481934,0.050048828
130.948,0.090332031,0.061950684
130.9485,0.080871582,0.057067871
130.949,0.079345703,0.057067871
130.9495,0.111999512,0.08026123
130.95,0.108337402,0.093078613
130.9505,0.093078613,0.088806152
130.951,0.095214844,0.090942383
130.9515,0.094604492,0.093383789
130.952,0.081176758,0.08605957
130.9525,0.075378418,0.081787109
130.953,0.057373047,0.070800781
130.9535,0.036315918,0.052185059
130.954,0.018310547,0.034790039
130.9545,0.003356934,0.020446777
130.955,-0.004882813,0.011291504
130.9555,-0.010986328,0.007629395
130.956,-0.026550293,-0.004272461
130.9565,-0.037841797,-0.01373291
130.957,-0.053710938,-0.024719238
130.9575,-0.074768066,-0.043640137
130.958,-0.080566406,-0.054931641
130.9585,-0.067138672,-0.050048828
130.959,-0.066833496,-0.048828125
130.9595,-0.09765625,-0.072937012
130.96,-0.094909668,-0.082397461
130.9605,-0.082397461,-0.076599121
130.961,-0.082702637,-0.076904297
130.9615,-0.083007813,-0.078430176
130.962,-0.068359375,-0.071105957
130.9625,-0.063171387,-0.068664551
130.963,-0.048828125,-0.061340332
130.9635,-0.023498535,-0.042724609
130.964,-0.003356934,-0.025024414
130.9645,0.011901855,-0.011291504
130.965,0.017700195,0.000305176
130.9655,0.023193359,0.004577637
130.966,0.038452148,0.018310547
130.9665,0.053405762,0.03326416
130.967,0.06652832,0.047607422
130.9675,0.086975098,0.068969727
130.968,0.092773438,0.08026123
130.9685,0.080566406,0.075378418
130.969,0.080566406,0.071411133
130.9695,0.111999512,0.090332031
130.97,0.107727051,0.097045898
130.9705,0.093383789,0.090637207
130.971,0.093994141,0.091247559
130.9715,0.095214844,0.09552002
130.972,0.084228516,0.090332031
130.9725,NULL,NULL
130.973,0.061950684,0.081787109
130.9735,0.036621094,0.06439209
130.974,0.014953613,0.048828125
130.9745,0.000610352,0.036315918
130.975,-0.004882813,0.026855469
130.9755,-0.012207031,0.019226074
130.976,-0.028991699,0.004577637
130.9765,-0.038757324,-0.008239746
130.977,-0.055236816,-0.022277832
130.9775,-0.079345703,-0.041809082
130.978,-0.085449219,-0.054626465
130.9785,-0.072021484,-0.049743652
130.979,-0.070800781,-0.047607422
130.9795,-0.098266602,-0.069580078
130.98,-0.096435547,-0.079040527
130.9805,-0.084838867,-0.074157715
130.981,-0.084228516,-0.076293945
130.9815,-0.083618164,-0.076293945
130.982,-0.070495605,-0.068359375
130.9825,-0.06439209,-0.065917969
130.983,-0.054931641,-0.05859375
130.9835,-0.027770996,-0.038452148
130.984,-0.007629395,-0.02166748
130.9845,0.007629395,-0.010070801
130.985,0.013122559,-0.000610352
130.9855,0.01953125,0.004882813
130.986,0.035095215,0.016784668
130.9865,0.048828125,0.028381348
130.987,0.064697266,0.041503906
130.9875,0.084228516,0.06072998
130.988,0.092163086,0.071105957
130.9885,0.077209473,0.069274902
130.989,0.076904297,0.066833496
130.9895,0.11138916,0.086669922
130.99,0.106811523,0.096435547
130.9905,0.090942383,0.087890625
130.991,0.091247559,0.085449219
130.9915,0.090942383,0.086669922
130.992,0.079650879,0.081787109
130.9925,0.070800781,0.076293945
130.993,0.057373047,0.067138672
130.9935,0.030822754,0.048828125
130.994,0.010986328,0.035400391
130.9945,-0.003967285,0.025634766
130.995,-0.008239746,0.017089844
130.9955,-0.017700195,0.010681152
130.996,-0.034484863,-0.002746582
130.9965,-0.044250488,-0.013122559
130.997,-0.057373047,-0.023193359
130.9975,-0.081176758,-0.044555664
130.998,-0.08605957,-0.059509277
130.9985,-0.073242188,-0.054931641
130.999,-0.073242188,-0.055236816
130.9995,-0.104064941,-0.076904297
131,-0.100402832,-0.087890625
131.0005,-0.087585449,-0.08392334
131.001,-0.088806152,-0.081176758
131.0015,-0.089111328,-0.079956055
131.002,-0.075683594,-0.072631836
131.0025,-0.072021484,-0.067749023
131.003,-0.058288574,-0.058288574
131.0035,-0.030212402,-0.042724609
131.004,-0.014953613,-0.025024414
131.0045,0.000610352,-0.009765625
131.005,0.007019043,0.001525879
131.0055,0.009765625,0.006103516
131.006,0.027770996,0.019226074
131.0065,0.040893555,0.03326416
131.007,0.055541992,0.046386719
131.0075,0.076293945,0.064086914
131.008,0.082397461,0.07598877
131.0085,0.071716309,0.071411133
131.009,0.071716309,0.07019043
131.0095,0.103149414,0.091247559
131.01,0.098876953,0.097045898
131.0105,0.08605957,0.087585449
131.011,0.086669922,0.086669922
131.0115,0.086364746,0.086669922
131.012,0.072937012,0.08026123
131.0125,0.06439209,0.077209473
131.013,0.052185059,0.067443848
131.0135,0.028381348,0.051574707
131.014,0.00793457,0.036010742
131.0145,-0.004272461,0.02532959
131.015,-0.011901855,0.014648438
131.0155,-0.018920898,0.005187988
131.016,-0.035705566,-0.009155273
131.0165,-0.04486084,-0.020141602
131.017,-0.059814453,-0.027770996
131.0175,-0.082092285,-0.048828125
131.018,-0.084838867,-0.061950684
131.0185,-0.072021484,-0.05645752
131.019,-0.073242188,-0.057067871
131.0195,-0.104675293,-0.079956055
131.02,-0.100402832,-0.089416504
131.0205,-0.086364746,-0.083007813
131.021,-0.088195801,-0.082397461
131.0215,-0.086669922,-0.084838867
131.022,-0.071411133,-0.076599121
131.0225,-0.065307617,-0.073242188
131.023,-0.051879883,-0.065002441
131.0235,-0.025634766,-0.046691895
131.024,-0.007324219,-0.031738281
131.0245,0.00579834,-0.019836426
131.025,0.012817383,-0.008850098
131.0255,0.016174316,-0.00213623
131.026,0.032348633,0.011291504
131.0265,0.047302246,0.02532959
131.027,0.062866211,0.037841797
131.0275,0.082092285,0.054931641
131.028,0.086975098,0.068359375
131.0285,0.073242188,0.062255859
131.029,0.072631836,0.060424805
131.0295,0.108337402,0.084228516
131.03,0.10559082,0.089416504
131.0305,0.091247559,0.086364746
131.031,0.092163086,0.086975098
131.0315,0.092773438,0.090026855
131.032,0.077514648,0.078735352
131.0325,0.07019043,0.072631836
131.033,0.057373047,0.065612793
131.0335,0.034484863,0.050048828
131.034,0.013427734,0.033569336
131.0345,0.00213623,0.02166748
131.035,-0.006713867,0.012817383
131.0355,-0.016174316,0.003967285
131.036,-0.032653809,-0.010681152
131.0365,-0.04119873,-0.022277832
131.037,-0.058898926,-0.035400391
131.0375,-0.078735352,-0.054931641
131.038,-0.086669922,-0.069885254
131.0385,-0.071105957,-0.066223145
131.039,-0.070495605,-0.063781738
131.0395,-0.102539063,-0.085754395
131.04,-0.102539063,-0.094299316
131.0405,-0.088195801,-0.088500977
131.041,-0.08605957,-0.086975098
131.0415,-0.084533691,-0.087280273
131.042,-0.069885254,-0.076904297
131.0425,-0.062866211,-0.070800781
131.043,-0.049743652,-0.061340332
131.0435,-0.022888184,-0.044250488
131.044,-0.005187988,-0.029907227
131.0445,0.008850098,-0.018615723
131.045,0.014343262,-0.012207031
131.0455,0.018005371,-0.005187988
131.046,0.032958984,0.010070801
131.0465,0.044250488,0.024719238
131.047,0.060119629,0.038146973
131.0475,0.083007813,0.056152344
131.048,0.087890625,0.069580078
131.0485,0.07232666,0.063171387
131.049,0.071411133,0.059814453
131.0495,0.106201172,0.082702637
131.05,0.10345459,0.093383789
131.0505,0.090332031,0.088195801
131.051,0.091247559,0.088500977
131.0515,0.090942383,0.087890625
131.052,0.078125,0.081176758
131.0525,0.070800781,0.075073242
131.053,0.057373047,0.064086914
131.0535,0.034179688,0.047912598
131.054,0.013122559,0.03112793
131.0545,0.000610352,0.016784668
131.055,-0.010070801,0.008239746
131.0555,-0.017089844,0.001831055
131.056,-0.033874512,-0.011901855
131.0565,-0.044250488,-0.024414063
131.057,-0.057373047,-0.034179688
131.0575,-0.081481934,-0.051269531
131.058,-0.086975098,-0.062255859
131.0585,-0.073852539,-0.058288574
131.059,-0.073547363,-0.061035156
131.0595,-0.103759766,-0.078735352
131.06,-0.102844238,-0.087585449
131.0605,-0.091552734,-0.083312988
131.061,-0.092468262,-0.084228516
131.0615,-0.088806152,-0.087280273
131.062,-0.073852539,-0.079650879
131.0625,-0.069274902,-0.07598877
131.063,-0.055847168,-0.068359375
131.0635,-0.029296875,-0.048217773
131.064,-0.008239746,-0.029602051
131.0645,0.005493164,-0.016784668
131.065,0.011901855,-0.008239746
131.0655,0.01739502,-0.001525879
131.066,0.029602051,0.010986328
131.0665,0.043334961,0.022277832
131.067,0.059814453,0.03326416
131.0675,0.080871582,0.052490234
131.068,0.08605957,0.06652832
131.0685,0.073852539,0.062255859
131.069,0.071411133,0.059204102
131.0695,0.102844238,0.081481934
131.07,0.097961426,0.093994141
131.0705,0.082397461,0.086364746
131.071,0.083618164,0.08605957
131.0715,0.083007813,0.087280273
131.072,0.073242188,0.080871582
131.0725,0.063476563,0.076293945
131.073,0.049133301,0.06652832
131.0735,0.025939941,0.048522949
131.074,0.006408691,0.03112793
131.0745,-0.007019043,0.016784668
131.075,-0.015258789,0.009155273
131.0755,-0.020446777,-0.000305176
131.076,-0.036315918,-0.01373291
131.0765,-0.046691895,-0.024719238
131.077,-0.060424805,-0.0390625
131.0775,-0.080566406,-0.058898926
131.078,-0.088195801,-0.072021484
131.0785,-0.075683594,-0.066833496
131.079,-0.073547363,-0.065307617
131.0795,-0.104980469,-0.082397461
131.08,-0.101623535,-0.088806152
131.0805,-0.089111328,-0.082397461
131.081,-0.087890625,-0.080871582
131.0815,-0.087585449,-0.082702637
131.082,-0.075378418,-0.076904297
131.0825,-0.070495605,-0.072631836
131.083,-0.056152344,-0.063476563
131.0835,-0.03112793,-0.046691895
131.084,-0.011291504,-0.028991699
131.0845,0.002746582,-0.018615723
131.085,0.013427734,-0.012207031
131.0855,0.015258789,-0.010681152
131.086,0.030517578,0.004272461
131.0865,0.04699707,0.015258789
131.087,0.062561035,0.029602051
131.0875,0.079650879,0.049133301
131.088,0.086364746,0.065307617
131.0885,0.075073242,0.06439209
131.089,0.073852539,0.065612793
131.0895,0.10559082,0.086669922
131.09,0.098571777,0.095214844
131.0905,0.084533691,0.086975098
131.091,0.084533691,0.086364746
131.0915,0.084838867,0.08972168
131.092,0.069885254,0.083007813
131.0925,0.066833496,0.079040527
131.093,0.053710938,0.069885254
131.0935,0.029907227,0.051574707
131.094,0.010986328,0.034484863
131.0945,-0.002441406,0.022277832
131.095,-0.009460449,0.01159668
131.0955,-0.018005371,0.002746582
131.096,-0.031738281,-0.010986328
131.0965,-0.043640137,-0.020751953
131.097,-0.056762695,-0.03326416
131.0975,-0.076293945,-0.053405762
131.098,-0.082702637,-0.06652832
131.0985,-0.07232666,-0.067138672
131.099,-0.071105957,-0.067443848
131.0995,-0.103759766,-0.089111328
131.1,-0.09979248,-0.099182129
131.1005,-0.087585449,-0.091247559
131.101,-0.088195801,-0.089416504
131.1015,-0.08605957,-0.092468262
131.102,-0.072631836,-0.083007813
131.1025,-0.065307617,-0.077514648
131.103,-0.05065918,-0.06652832
131.1035,-0.024414063,-0.043945313
131.104,-0.009460449,-0.024719238
131.1045,0.005493164,-0.011901855
131.105,0.012817383,-0.005493164
131.1055,0.014953613,0.002441406
131.106,0.032043457,0.014343262
131.1065,0.045776367,0.02532959
131.107,0.062255859,0.035705566
131.1075,0.081481934,0.055847168
131.108,0.086364746,0.066833496
131.1085,0.07232666,0.061950684
131.109,0.071105957,0.058288574
131.1095,0.101318359,0.079956055
131.11,0.098571777,0.090332031
131.1105,0.083618164,0.083007813
131.111,0.085754395,0.085144043
131.1115,0.085754395,0.087280273
131.112,0.07232666,0.082092285
131.1125,0.065917969,0.079040527
131.113,0.052490234,0.067749023
131.1135,0.028991699,0.049133301
131.114,0.009155273,0.032043457
131.1145,-0.003356934,0.018310547
131.115,-0.009765625,0.008850098
131.1155,-0.016174316,0.000915527
131.116,-0.03112793,-0.010986328
131.1165,-0.040893555,-0.021057129
131.117,-0.057983398,-0.031433105
131.1175,-0.079345703,-0.051574707
131.118,-0.085144043,-0.063476563
131.1185,-0.07232666,-0.059814453
131.119,-0.070800781,-0.057983398
131.1195,-0.101928711,-0.078430176
131.12,-0.100708008,-0.088195801
131.1205,-0.087585449,-0.084228516
131.121,-0.08605957,-0.085144043
131.1215,-0.083007813,-0.083312988
131.122,-0.069580078,-0.071716309
131.1225,-0.065002441,-0.068969727
131.123,-0.05279541,-0.061035156
131.1235,-0.026855469,-0.04486084
131.124,-0.007019043,-0.029296875
131.1245,0.008544922,-0.017089844
131.125,0.011901855,-0.006408691
131.1255,0.01739502,-0.002746582
131.126,0.034179688,0.011291504
131.1265,0.048522949,0.026550293
131.127,0.063781738,0.036315918
131.1275,0.084838867,0.054321289
131.128,0.094604492,0.065917969
131.1285,0.080871582,0.062866211
131.129,0.080566406,0.061950684
131.1295,0.112304688,0.082702637
131.13,NULL,NULL
131.1305,0.095214844,0.082397461
131.131,0.097351074,0.082092285
131.1315,0.095825195,0.085754395
131.132,0.085449219,0.079956055
131.1325,0.079040527,0.076293945
131.133,0.06439209,0.069274902
131.1335,0.040893555,0.05065918
131.134,0.021362305,0.035400391
131.1345,0.006408691,0.020446777
131.135,-0.003356934,0.008850098
131.1355,-0.011901855,0.00213623
131.136,-0.028686523,-0.014343262
131.1365,-0.037841797,-0.022277832
131.137,-0.054016113,-0.033569336
131.1375,-0.074157715,-0.05279541
131.138,-0.079650879,-0.063476563
131.1385,-0.067138672,-0.058898926
131.139,-0.066223145,-0.055847168
131.1395,-0.097045898,-0.077209473
131.14,-0.094299316,-0.088500977
131.1405,-0.082702637,-0.082092285
131.141,-0.084838867,-0.084838867
131.1415,-0.08605957,-0.084228516
131.142,-0.072631836,-0.076293945
131.1425,-0.066223145,-0.073242188
131.143,-0.053710938,-0.066833496
131.1435,-0.027160645,-0.044555664
131.144,-0.011291504,-0.028076172
131.1445,0.004577637,-0.018920898
131.145,0.01159668,-0.009460449
131.1455,0.013427734,-0.003662109
131.146,0.030822754,0.009765625
131.1465,0.047302246,0.021057129
131.147,0.063171387,0.034790039
131.1475,0.081481934,0.052490234
131.148,0.086669922,0.065612793
131.1485,0.072937012,0.06072998
131.149,0.070495605,0.057983398
131.1495,0.101928711,0.081787109
131.15,0.096740723,0.090332031
131.1505,0.083007813,0.081176758
131.151,0.083618164,0.082397461
131.1515,0.083312988,0.085449219
131.152,0.070495605,0.079650879
131.1525,0.06652832,0.077209473
131.153,0.053710938,0.070495605
131.1535,0.029602051,0.054626465
131.154,0.010375977,0.038452148
131.1545,-0.003967285,0.025939941
131.155,-0.01373291,0.012512207
131.1555,-0.018310547,0.003356934
131.156,-0.032043457,-0.01373291
131.1565,-0.043945313,-0.027770996
131.157,-0.059204102,-0.040893555
131.1575,-0.081787109,-0.063171387
131.158,-0.088195801,-0.074157715
131.1585,-0.074462891,-0.067443848
131.159,-0.073547363,-0.063171387
131.1595,-0.102539063,-0.081481934
131.16,-0.100402832,-0.092163086
131.1605,-0.085144043,-0.086364746
131.161,-0.087890625,-0.08605957
131.1615,-0.087890625,-0.087890625
131.162,-0.073852539,-0.08026123
131.1625,-0.068969727,-0.072937012
131.163,-0.055541992,-0.062866211
131.1635,-0.03112793,-0.044250488
131.164,-0.010681152,-0.028686523
131.1645,0.001831055,-0.018920898
131.165,0.009460449,-0.009765625
131.1655,0.010986328,-0.003356934
131.166,0.028076172,0.009765625
131.1665,0.043334961,0.023193359
131.167,0.058288574,0.036621094
131.1675,0.079040527,0.056152344
131.168,0.085449219,0.068054199
131.1685,0.071105957,0.061950684
131.169,0.071716309,0.06072998
131.1695,0.10559082,0.08026123
131.17,0.103759766,0.090637207
131.1705,0.090332031,0.083312988
131.171,0.089416504,0.084533691
131.1715,0.089111328,0.086364746
131.172,0.076599121,0.081787109
131.1725,0.069885254,0.074768066
131.173,0.056152344,0.062561035
131.1735,0.031433105,0.043945313
131.174,0.008850098,0.028381348
131.1745,-0.005493164,0.015563965
131.175,-0.010986328,0.008544922
131.1755,-0.018920898,0.005493164
131.176,-0.034484863,-0.00579834
131.1765,-0.043945313,-0.014953613
131.177,-0.061340332,-0.026245117
131.1775,-0.083007813,-0.045166016
131.178,-0.087585449,-0.059204102
131.1785,-0.07232666,-0.055541992
131.179,-0.072937012,-0.053405762
131.1795,-0.102539063,-0.074157715
131.18,-0.09979248,-0.083618164
131.1805,-0.086364746,-0.076904297
131.181,-0.087890625,-0.076904297
131.1815,-0.088500977,-0.079040527
131.182,-0.072631836,-0.070495605
131.1825,-0.064086914,-0.068664551
131.183,-0.05065918,-0.061340332
131.1835,-0.024719238,-0.042114258
131.184,-0.008239746,-0.024719238
131.1845,0.006408691,-0.010986328
131.185,0.011901855,-0.001525879
131.1855,0.016174316,0.001831055
131.186,0.031433105,0.012512207
131.1865,0.045471191,0.027770996
131.187,0.06072998,0.039367676
131.1875,0.082397461,0.057678223
131.188,0.086364746,0.067138672
131.1885,0.073852539,0.063171387
131.189,0.071716309,0.061340332
131.1895,0.100708008,0.084228516
131.19,0.096740723,0.094604492
131.1905,0.083007813,0.088806152
131.191,0.086364746,0.087585449
131.1915,0.085144043,0.086975098
131.192,0.071105957,0.080566406
131.1925,0.064697266,0.077209473
131.193,0.05065918,0.068054199
131.1935,0.025634766,0.051269531
131.194,0.006713867,0.034179688
131.1945,-0.003356934,0.023498535
131.195,-0.011291504,0.014648438
131.1955,-0.018310547,0.007019043
131.196,-0.033569336,-0.00579834
131.1965,-0.045471191,-0.014343262
131.197,-0.05859375,-0.025939941
131.1975,-0.078125,-0.045166016
131.198,-0.085449219,-0.06072998
131.1985,-0.068969727,-0.055847168
131.199,-0.068359375,-0.055236816
131.1995,-0.100402832,-0.079956055
131.2,-0.100097656,-0.095214844
131.2005,-0.086669922,-0.090332031
131.201,-0.088195801,-0.090026855
131.2015,-0.087890625,-0.092468262
131.202,-0.072631836,-0.082092285
131.2025,-0.068054199,-0.077514648
131.203,NULL,NULL
131.2035,NULL,NULL
131.204,NULL,NULL
131.2045,NULL,NULL
131.205,NULL,NULL
131.2055,NULL,NULL
131.206,NULL,NULL
131.2065,NULL,NULL
131.207,NULL,NULL
131.2075,NULL,NULL
131.208,0.085754395,0.061645508
131.2085,0.072937012,0.056762695
131.209,0.072937012,0.054626465
131.2095,0.104980469,0.076599121
131.21,0.101623535,0.084228516
131.2105,0.08605957,0.078430176
131.211,0.085449219,0.080566406
131.2115,0.08605957,0.082092285
131.212,0.070495605,0.073547363
131.2125,0.061950684,0.069885254
131.213,0.047607422,0.058898926
131.2135,0.026550293,0.043029785
131.214,0.006408691,0.027160645
131.2145,-0.007629395,0.014038086
131.215,-0.016479492,0.004882813
131.2155,-0.02166748,-0.000915527
131.216,-0.039367676,-0.016174316
131.2165,-0.049438477,-0.026855469
131.217,-0.061950684,-0.038452148
131.2175,-0.082092285,-0.057067871
131.218,-0.088500977,-0.070495605
131.2185,-0.075378418,-0.065917969
131.219,-0.075073242,-0.063476563
131.2195,-0.104370117,-0.086364746
131.22,-0.09979248,-0.093383789
131.2205,-0.087890625,-0.086364746
131.221,-0.087280273,-0.085449219
131.2215,-0.086364746,-0.088195801
131.222,-0.070800781,-0.081176758
131.2225,-0.066833496,-0.075073242
131.223,-0.054321289,-0.064697266
131.2235,-0.028381348,-0.043029785
131.224,-0.01159668,-0.02746582
131.2245,0.001220703,-0.014648438
131.225,0.00793457,-0.006103516
131.2255,0.01373291,0.001525879
131.226,0.032653809,0.014038086
131.2265,0.048217773,0.028381348
131.227,0.060424805,0.0390625
131.2275,0.081481934,0.059814453
131.228,0.086975098,0.068969727
131.2285,0.072021484,0.062561035
131.229,0.072021484,0.062866211
131.2295,0.104980469,0.084533691
131.23,0.102233887,0.095214844
131.2305,0.089111328,0.088195801
131.231,0.087280273,0.089111328
131.2315,0.085449219,0.088500977
131.232,0.071411133,0.079956055
131.2325,0.063781738,0.074768066
131.233,0.049133301,0.067138672
131.2335,0.025634766,0.047607422
131.234,0.00579834,0.030517578
131.2345,-0.006103516,0.015258789
131.235,-0.014343262,0.00579834
131.2355,-0.020446777,-0.001220703
131.236,-0.037231445,-0.016174316
131.2365,-0.045471191,-0.023193359
131.237,-0.061035156,-0.03692627
131.2375,-0.082092285,-0.055541992
131.238,-0.088195801,-0.069580078
131.2385,-0.073242188,-0.066223145
131.239,-0.075378418,-0.063781738
131.2395,-0.107421875,-0.08605957
131.24,-0.104980469,-0.093688965
131.2405,-0.092468262,-0.086669922
131.241,-0.093383789,-0.084228516
131.2415,-0.093688965,-0.088195801
131.242,-0.08026123,-0.079956055
131.2425,-0.071411133,-0.07598877
131.243,-0.059204102,-0.066833496
131.2435,-0.032043457,-0.049743652
131.244,-0.014038086,-0.034484863
131.2445,0.000610352,-0.018615723
131.245,0.008850098,-0.00793457
131.2455,0.008850098,-0.004882813
131.246,0.026550293,0.007324219
131.2465,0.038757324,0.018005371
131.247,0.054016113,0.03112793
131.2475,0.076293945,0.049438477
131.248,0.082397461,0.063171387
131.2485,0.068664551,0.060424805
131.249,0.066223145,0.058898926
131.2495,0.099487305,0.079345703
131.25,0.098266602,0.090942383
131.2505,0.084838867,0.08392334
131.251,0.086669922,0.084838867
131.2515,0.085754395,0.087585449
131.252,0.073242188,0.077819824
131.2525,0.066833496,0.069885254
131.253,0.052490234,0.061340332
131.2535,0.026550293,0.042724609
131.254,0.00793457,0.024108887
131.2545,-0.005493164,0.00793457
131.255,-0.014953613,0.000610352
131.2555,-0.018615723,-0.005493164
131.256,-0.035400391,-0.018005371
131.2565,-0.047607422,-0.026245117
131.257,-0.061035156,-0.038452148
131.2575,-0.081176758,-0.055541992
131.258,-0.087890625,-0.068969727
131.2585,-0.075683594,-0.06439209
131.259,-0.072631836,-0.059814453
131.2595,-0.105895996,-0.079956055
131.26,-0.103149414,-0.090637207
131.2605,-0.08972168,-0.085144043
131.261,-0.092773438,-0.084838867
131.2615,-0.091247559,-0.085449219
131.262,-0.076599121,-0.078125
131.2625,-0.070495605,-0.073547363
131.263,-0.057373047,-0.065612793
131.2635,-0.030212402,-0.047607422
131.264,-0.014343262,-0.030517578
131.2645,0.001220703,-0.016174316
131.265,0.008544922,-0.006713867
131.2655,0.011901855,-0.002441406
131.266,0.028686523,0.008850098
131.2665,0.042724609,0.018310547
131.267,0.05859375,0.031738281
131.2675,0.077209473,0.051574707
131.268,0.082702637,0.064086914
131.2685,0.069885254,0.063476563
131.269,0.068664551,0.061340332
131.2695,0.101013184,0.082092285
131.27,0.09765625,0.092163086
131.2705,0.084838867,0.085754395
131.271,0.087585449,0.085144043
131.2715,0.084838867,0.088806152
131.272,0.072021484,0.080566406
131.2725,0.06652832,0.074768066
131.273,0.05279541,0.063781738
131.2735,0.030517578,0.047607422
131.274,0.00793457,0.031738281
131.2745,-0.005493164,0.020141602
131.275,-0.014038086,0.010375977
131.2755,-0.020751953,0.003967285
131.276,-0.038146973,-0.008850098
131.2765,-0.049743652,-0.018005371
131.277,-0.06439209,-0.027770996
131.2775,-0.083007813,-0.04699707
131.278,-0.091552734,-0.061645508
131.2785,-0.076904297,-0.05645752
131.279,-0.074157715,-0.05645752
131.2795,-0.10559082,-0.075378418
131.28,-0.10559082,-0.086364746
131.2805,-0.093688965,-0.083618164
131.281,-0.093078613,-0.08392334
131.2815,-0.091552734,-0.086669922
131.282,-0.077514648,-0.079040527
131.2825,-0.070800781,-0.077819824
131.283,-0.060424805,-0.070495605
131.2835,-0.035095215,-0.054321289
131.284,-0.016784668,-0.035400391
131.2845,-0.001525879,-0.020751953
131.285,0.004882813,-0.010986328
131.2855,0.010070801,-0.004882813
131.286,0.026245117,0.010070801
131.2865,0.043945313,0.022888184
131.287,0.059204102,0.037231445
131.2875,0.078430176,0.055236816
131.288,0.083618164,0.068054199
131.2885,0.072937012,0.06439209
131.289,0.071411133,0.061645508
131.2895,0.102844238,0.082397461
131.29,0.097351074,0.09185791
131.2905,0.084228516,0.084533691
131.291,0.082702637,0.083618164
131.2915,0.084838867,0.084228516
131.292,0.071105957,0.077514648
131.2925,0.066833496,0.07232666
131.293,0.052185059,0.063781738
131.2935,0.025939941,0.047607422
131.294,0.007629395,0.032653809
131.2945,-0.003051758,0.020141602
131.295,-0.009765625,0.010681152
131.2955,-0.015869141,0.000305176
131.296,-0.034790039,-0.018920898
131.2965,-0.04486084,-0.029296875
131.297,-0.05859375,-0.039978027
131.2975,-0.078735352,-0.060119629
131.298,-0.087585449,-0.072631836
131.2985,-0.076599121,-0.067443848
131.299,-0.074157715,-0.062255859
131.2995,-0.104675293,-0.080566406
131.3,-0.105895996,-0.086975098
131.3005,-0.091247559,-0.079650879
131.301,-0.090942383,-0.08026123
131.3015,-0.087280273,-0.081481934
131.302,-0.07232666,-0.074157715
131.3025,-0.068054199,-0.072021484
131.303,-0.055847168,-0.066223145
131.3035,-0.031738281,-0.05065918
131.304,-0.013427734,-0.032348633
131.3045,0.00213623,-0.021362305
131.305,0.00793457,-0.010986328
131.3055,0.013427734,-0.00579834
131.306,0.030822754,0.00793457
131.3065,0.043945313,0.021057129
131.307,0.057678223,0.03692627
131.3075,0.075683594,0.055236816
131.308,0.085144043,0.068969727
131.3085,0.073547363,0.06652832
131.309,0.073547363,0.065307617
131.3095,0.105285645,0.084838867
131.31,0.100708008,0.096740723
131.3105,0.08605957,0.090332031
131.311,0.08605957,0.092468262
131.3115,0.088195801,0.093688965
131.312,0.076293945,0.085754395
131.3125,0.067749023,0.079040527
131.313,0.053710938,0.069274902
131.3135,0.027770996,0.051574707
131.314,0.010681152,0.033874512
131.3145,-0.001525879,0.01953125
131.315,-0.010375977,0.00793457
131.3155,-0.015563965,0.001220703
131.316,-0.03112793,-0.01373291
131.3165,-0.040893555,-0.02166748
131.317,-0.055541992,-0.030212402
131.3175,-0.07598877,-0.051574707
131.318,-0.08392334,-0.065307617
131.3185,-0.069580078,-0.064086914
131.319,-0.068664551,-0.061950684
131.3195,-0.101013184,-0.082397461
131.32,-0.099182129,-0.092468262
131.3205,-0.085449219,-0.089416504
131.321,-0.087585449,-0.088500977
131.3215,-0.088195801,-0.087585449
131.322,-0.072631836,-0.082092285
131.3225,-0.06652832,-0.079040527
131.323,-0.054321289,-0.071411133
131.3235,-0.027770996,-0.054931641
131.324,-0.011291504,-0.038146973
131.3245,0.003662109,-0.021362305
131.325,0.010986328,-0.012207031
131.3255,0.013427734,-0.00579834
131.326,0.032043457,0.006103516
131.3265,0.048522949,0.018310547
131.327,0.062561035,0.032958984
131.3275,0.082702637,0.051269531
131.328,0.087585449,0.06439209
131.3285,0.073547363,0.059509277
131.329,0.070800781,0.057373047
131.3295,0.103759766,0.077819824
131.33,0.101928711,0.088195801
131.3305,0.087585449,0.082702637
131.331,0.087585449,0.082702637
131.3315,0.089111328,0.085754395
131.332,0.075683594,0.076599121
131.3325,0.067749023,0.068054199
131.333,0.05279541,0.05279541
131.3335,0.028686523,0.03326416
131.334,0.007324219,0.013122559
131.3345,-0.004272461,0.004882813
131.335,-0.01159668,0
131.3355,-0.01739502,-0.002441406
131.336,-0.034179688,-0.017700195
131.3365,-0.043029785,-0.030212402
131.337,-0.06072998,-0.04119873
131.3375,-0.080566406,-0.058288574
131.338,-0.090026855,-0.070800781
131.3385,-0.075378418,-0.064697266
131.339,-0.071411133,-0.061645508
131.3395,-0.103759766,-0.079650879
131.34,-0.101928711,-0.087585449
131.3405,-0.088195801,-0.082092285
131.341,-0.088500977,-0.080871582
131.3415,-0.087585449,-0.083312988
131.342,-0.073547363,-0.077209473
131.3425,-0.071105957,-0.073547363
131.343,-0.056152344,-0.065612793
131.3435,-0.031738281,-0.048828125
131.344,-0.013122559,-0.03326416
131.3445,0.001525879,-0.018920898
131.345,0.009155273,-0.010375977
131.3455,0.011291504,-0.003967285
131.346,0.027770996,0.007324219
131.3465,0.042114258,0.020446777
131.347,0.055541992,0.032653809
131.3475,0.076293945,0.051574707
131.348,0.083618164,0.065612793
131.3485,0.069580078,0.061950684
131.349,0.067138672,0.061035156
131.3495,0.098876953,0.08026123
131.35,0.096740723,0.09185791
131.3505,0.082092285,0.08605957
131.351,0.082702637,0.086669922
131.3515,0.080871582,0.089416504
131.352,0.069885254,0.082092285
131.3525,0.062866211,0.075073242
131.353,0.049133301,0.067749023
131.3535,0.024108887,0.049743652
131.354,0.003967285,0.032958984
131.3545,-0.009460449,0.022888184
131.355,-0.017089844,0.014038086
131.3555,-0.023498535,0.005187988
131.356,-0.040893555,-0.008544922
131.3565,-0.050354004,-0.018310547
131.357,-0.065307617,-0.029602051
131.3575,-0.085144043,-0.048217773
131.358,-0.093688965,-0.06072998
131.3585,-0.079650879,-0.059204102
131.359,-0.078125,-0.059509277
131.3595,-0.109558105,-0.081787109
131.36,-0.106201172,-0.087890625
131.3605,-0.092468262,-0.083312988
131.361,-0.093688965,-0.082702637
131.3615,-0.092468262,-0.08605957
131.362,-0.077209473,-0.079956055
131.3625,-0.071411133,-0.077514648
131.363,-0.059204102,-0.068664551
131.3635,-0.033874512,-0.049438477
131.364,-0.015258789,-0.036010742
131.3645,0.001525879,-0.022583008
131.365,0.008239746,-0.013122559
131.3655,0.012207031,-0.009460449
131.366,0.028991699,0.003662109
131.3665,0.042419434,0.016174316
131.367,0.057678223,0.028076172
131.3675,0.078430176,0.046386719
131.368,0.084228516,0.062255859
131.3685,0.072631836,0.06072998
131.369,0.072937012,0.057067871
131.3695,0.104675293,0.077514648
131.37,0.101013184,0.08972168
131.3705,0.086975098,0.083618164
131.371,0.087280273,0.083312988
131.3715,0.087585449,0.08605957
131.372,0.074157715,0.079040527
131.3725,0.068359375,0.072937012
131.373,0.055541992,0.06439209
131.3735,0.028991699,0.04486084
131.374,0.009765625,0.030517578
131.3745,-0.006408691,0.014038086
131.375,-0.01159668,0.003051758
131.3755,-0.016479492,-0.004272461
131.376,-0.032958984,-0.019226074
131.3765,-0.04486084,-0.030212402
131.377,-0.059204102,-0.042419434
131.3775,-0.080566406,-0.061950684
131.378,-0.086975098,-0.07598877
131.3785,-0.075683594,-0.070800781
131.379,-0.07232666,-0.066833496
131.3795,-0.101928711,-0.086364746
131.38,-0.101013184,-0.094299316
131.3805,-0.088195801,-0.089416504
131.381,-0.088500977,-0.087280273
131.3815,-0.086975098,-0.088195801
131.382,-0.072937012,-0.079956055
131.3825,-0.06652832,-0.076293945
131.383,-0.053100586,-0.069885254
131.3835,-0.026550293,-0.053710938
131.384,-0.00793457,-0.037536621
131.3845,0.006713867,-0.019836426
131.385,0.012817383,-0.008239746
131.3855,0.014038086,-0.001831055
131.386,0.030822754,0.010681152
131.3865,0.043945313,0.025024414
131.387,0.060119629,0.037231445
131.3875,0.078735352,0.055236816
131.388,0.085754395,0.065612793
131.3885,0.074157715,0.063781738
131.389,0.072021484,0.063171387
131.3895,0.102844238,0.085754395
131.39,0.100097656,0.096740723
131.3905,0.08605957,0.08972168
131.391,0.086364746,0.088500977
131.3915,0.084533691,0.08972168
131.392,0.074462891,0.080871582
131.3925,0.067749023,0.077819824
131.393,0.054016113,0.065612793
131.3935,0.030517578,0.046691895
131.394,0.008850098,0.029907227
131.3945,-0.003662109,0.01739502
131.395,-0.011291504,0.011901855
131.3955,-0.018005371,0.007019043
131.396,-0.032348633,-0.00579834
131.3965,-0.043945313,-0.021057129
131.397,-0.057067871,-0.030212402
131.3975,-0.079040527,-0.049438477
131.398,-0.088500977,-0.061340332
131.3985,-0.073852539,-0.05859375
131.399,-0.073242188,-0.059204102
131.3995,-0.103759766,-0.081481934
131.4,-0.102844238,-0.094604492
131.4005,-0.087890625,-0.086364746
131.401,-0.08972168,-0.084533691
131.4015,-0.088806152,-0.088500977
131.402,-0.075073242,-0.080566406
131.4025,-0.068359375,-0.074462891
131.403,-0.057067871,-0.065307617
131.4035,-0.031738281,-0.048522949
131.404,-0.011901855,-0.032348633
131.4045,0.003662109,-0.020446777
131.405,0.009765625,-0.01373291
131.4055,0.013122559,-0.008850098
131.406,0.03112793,0.004272461
131.4065,0.04486084,0.017089844
131.407,0.062866211,0.028076172
131.4075,0.083312988,0.049743652
131.408,0.091247559,0.062866211
131.4085,0.078735352,0.059509277
131.409,0.076904297,0.055236816
131.4095,0.108032227,0.074462891
131.41,0.102844238,0.086364746
131.4105,0.088195801,0.081481934
131.411,0.091552734,0.082092285
131.4115,0.088806152,0.084533691
131.412,0.075073242,0.076293945
131.4125,0.070495605,0.068664551
131.413,0.055236816,0.05645752
131.4135,0.030822754,0.038146973
131.414,0.012817383,0.021972656
131.4145,0.000305176,0.007629395
131.415,-0.010375977,-0.001525879
131.4155,-0.018615723,-0.008239746
131.416,-0.037231445,-0.020751953
131.4165,-0.047607422,-0.030822754
131.417,-0.061950684,-0.041503906
131.4175,-0.082397461,-0.059814453
131.418,-0.088195801,-0.072937012
131.4185,-0.074768066,-0.072631836
131.419,-0.071411133,-0.069580078
131.4195,-0.104064941,-0.090026855
131.42,-0.103759766,-0.101928711
131.4205,-0.089416504,-0.098571777
131.421,-0.091552734,-0.098876953
131.4215,-0.08972168,-0.10345459
131.422,-0.076599121,-0.095825195
131.4225,-0.071411133,-0.092468262
131.423,-0.057067871,-0.083618164
131.4235,-0.030212402,-0.064086914
131.424,-0.010986328,-0.046386719
131.4245,0.002441406,-0.033874512
131.425,0.012817383,-0.023803711
131.4255,0.014343262,-0.014953613
131.426,0.031433105,-0.000915527
131.4265,0.044555664,0.014953613
131.427,0.062255859,0.029296875
131.4275,0.081787109,0.046386719
131.428,0.089416504,0.057373047
131.4285,0.075378418,0.054626465
131.429,0.071411133,0.053405762
131.4295,0.104675293,0.07598877
131.43,0.102844238,0.08972168
131.4305,0.092773438,0.082702637
131.431,0.092163086,0.082702637
131.4315,0.093078613,0.086975098
131.432,0.078735352,0.078125
131.4325,0.070800781,0.075378418
131.433,0.055847168,0.065307617
131.4335,0.03326416,0.048522949
131.434,0.012817383,0.029602051
131.4345,-0.000305176,0.019836426
131.435,-0.010986328,0.010070801
131.4355,-0.018615723,0.003662109
131.436,-0.034484863,-0.009765625
131.4365,-0.047302246,-0.021057129
131.437,-0.061950684,-0.034484863
131.4375,-0.085144043,-0.057678223
131.438,-0.092163086,-0.071411133
131.4385,-0.079040527,-0.06652832
131.439,-0.075683594,-0.062255859
131.4395,-0.105895996,-0.084533691
131.44,-0.10345459,-0.094909668
131.4405,-0.088806152,-0.090942383
131.441,-0.091552734,-0.08972168
131.4415,-0.087890625,-0.092773438
131.442,-0.073242188,-0.085449219
131.4425,-0.069274902,-0.079345703
131.443,-0.057678223,-0.064697266
131.4435,-0.030517578,-0.043945313
131.444,-0.01159668,-0.028381348
131.4445,0.002441406,-0.01373291
131.445,0.009460449,-0.004577637
131.4455,0.014038086,0.000610352
131.446,0.029602051,0.010070801
131.4465,0.043640137,0.021362305
131.447,0.057983398,0.032958984
131.4475,0.078430176,0.052490234
131.448,0.084533691,0.063781738
131.4485,0.073547363,0.060424805
131.449,0.07019043,0.056762695
131.4495,0.10559082,0.078735352
131.45,0.101623535,0.088806152
131.4505,0.087585449,0.081176758
131.451,0.090026855,0.081176758
131.4515,0.090637207,0.085449219
131.452,0.077514648,0.079650879
131.4525,0.07019043,0.076599121
131.453,0.054626465,0.064086914
131.4535,0.029602051,0.046386719
131.454,0.010070801,0.028686523
131.4545,-0.003051758,0.017700195
131.455,-0.011291504,0.008850098
131.4555,-0.01739502,-0.000610352
131.456,-0.036315918,-0.015258789
131.4565,-0.047607422,-0.024414063
131.457,-0.057983398,-0.035705566
131.4575,-0.079650879,-0.051879883
131.458,-0.088500977,-0.068054199
131.4585,-0.072631836,-0.06652832
131.459,-0.071105957,-0.065917969
131.4595,-0.10345459,-0.089111328
131.46,-0.102844238,-0.099487305
131.4605,-0.090942383,-0.094299316
131.461,-0.09185791,-0.093383789
131.4615,-0.090637207,-0.096130371
131.462,-0.076904297,-0.086669922
131.4625,-0.069274902,-0.077819824
131.463,-0.054931641,-0.067138672
131.4635,-0.029296875,-0.046691895
131.464,-0.012207031,-0.027770996
131.4645,0.003356934,-0.012817383
131.465,0.010375977,-0.007629395
131.4655,0.01159668,-0.003967285
131.466,0.026855469,0.009765625
131.4665,0.039672852,0.019836426
131.467,0.054321289,0.028076172
131.4675,0.073547363,0.046691895
131.468,0.080871582,0.059814453
131.4685,0.069274902,0.058288574
131.469,0.068054199,0.057373047
131.4695,0.100097656,0.078125
131.47,0.098876953,0.088195801
131.4705,0.084228516,0.079956055
131.471,0.082702637,0.079345703
131.4715,0.084838867,0.083312988
131.472,0.073242188,0.076599121
131.4725,0.067138672,0.071105957
131.473,0.053710938,0.059509277
131.4735,0.03112793,0.042724609
131.474,0.009765625,0.024719238
131.4745,-0.003967285,0.01159668
131.475,-0.010986328,0.000305176
131.4755,-0.01739502,-0.006408691
131.476,-0.034790039,-0.020446777
131.4765,-0.045776367,-0.030822754
131.477,-0.059814453,-0.041503906
131.4775,-0.083618164,-0.060424805
131.478,-0.089111328,-0.073242188
131.4785,-0.074157715,-0.071411133
131.479,-0.07232666,-0.069580078
131.4795,-0.103759766,-0.086975098
131.48,-0.103759766,-0.096740723
131.4805,-0.090637207,-0.087890625
131.481,-0.091552734,-0.085449219
131.4815,-0.09185791,-0.087890625
131.482,-0.077514648,-0.082092285
131.4825,-0.072021484,-0.079650879
131.483,-0.057678223,-0.071411133
131.4835,-0.032653809,-0.054321289
131.484,-0.011901855,-0.03692627
131.4845,0.001831055,-0.023193359
131.485,0.009155273,-0.012512207
131.4855,0.010070801,-0.009155273
131.486,0.024414063,0.001220703
131.4865,0.038452148,0.014343262
131.487,0.053710938,0.026550293
131.4875,0.073547363,0.047302246
131.488,0.080566406,0.060119629
131.4885,0.06652832,0.059509277
131.489,0.066833496,0.058898926
131.4895,0.102539063,0.08026123
131.49,0.098876953,0.091247559
131.4905,0.085144043,0.084838867
131.491,0.086975098,0.085144043
131.4915,0.08605957,0.085754395
131.492,0.073242188,0.077514648
131.4925,0.063781738,0.071411133
131.493,0.050048828,0.062561035
131.4935,0.028686523,0.04699707
131.494,0.008850098,0.029296875
131.4945,-0.003051758,0.014343262
131.495,-0.012207031,0.005493164
131.4955,-0.016784668,-0.001831055
131.496,-0.032043457,-0.015869141
131.4965,-0.045166016,-0.028991699
131.497,-0.059204102,-0.040283203
131.4975,-0.079650879,-0.059509277
131.498,-0.088195801,-0.073852539
131.4985,-0.075073242,-0.069580078
131.499,-0.075378418,-0.066833496
131.4995,-0.104370117,-0.086975098
131.5,-0.102844238,-0.096130371
131.5005,-0.090332031,-0.08972168
131.501,-0.088806152,-0.091552734
131.5015,-0.088500977,-0.089111328
131.502,-0.074462891,-0.078735352
131.5025,-0.07019043,-0.072937012
131.503,-0.056762695,-0.063171387
131.5035,-0.031738281,-0.051879883
131.504,-0.013427734,-0.036010742
131.5045,0.000305176,-0.01953125
131.505,0.010070801,-0.008544922
131.5055,0.013427734,-0.002746582
131.506,0.030822754,0.010375977
131.5065,0.045166016,0.022277832
131.507,0.06072998,0.034790039
131.5075,0.08026123,0.053100586
131.508,0.086364746,0.063476563
131.5085,0.073852539,0.059204102
131.509,0.071411133,0.05645752
131.5095,0.104370117,0.077209473
131.51,0.101318359,0.089111328
131.5105,0.086975098,0.082092285
131.511,0.087585449,0.081481934
131.5115,0.088500977,0.084533691
131.512,0.077209473,0.077819824
131.5125,0.068664551,0.070800781
131.513,0.057678223,0.061340332
131.5135,0.032348633,0.042724609
131.514,0.01373291,0.027770996
131.5145,0.000610352,0.014343262
131.515,-0.007324219,0.004882813
131.5155,-0.01373291,0
131.516,-0.030822754,-0.012817383
131.5165,-0.04119873,-0.023498535
131.517,-0.055236816,-0.034484863
131.5175,-0.076293945,-0.054626465
131.518,-0.084838867,-0.071105957
131.5185,-0.072021484,-0.064697266
131.519,-0.070800781,-0.063171387
131.5195,-0.102844238,-0.084533691
131.52,-0.10345459,-0.096740723
131.5205,-0.089111328,-0.090332031
131.521,-0.092163086,-0.088806152
131.5215,-0.090332031,-0.090026855
131.522,-0.072631836,-0.079345703
131.5225,-0.067443848,-0.07598877
131.523,-0.055541992,-0.066833496
131.5235,-0.030517578,-0.045471191
131.524,-0.011291504,-0.029296875
131.5245,0.004577637,-0.015869141
131.525,0.012817383,-0.002746582
131.5255,0.014343262,-0.000305176
131.526,0.031433105,0.014038086
131.5265,0.045776367,0.026245117
131.527,0.059509277,0.038146973
131.5275,0.079650879,0.055541992
131.528,0.087280273,0.068359375
131.5285,0.073852539,0.063171387
131.529,0.070495605,0.061950684
131.5295,0.102844238,0.081787109
131.53,0.100097656,0.090942383
131.5305,0.085754395,0.083312988
131.531,0.085754395,0.083007813
131.5315,0.085144043,0.083007813
131.532,0.072631836,0.078125
131.5325,0.067138672,0.072021484
131.533,0.054931641,0.062866211
131.5335,0.031738281,0.046386719
131.534,0.011901855,0.029296875
131.5345,-0.000610352,0.017700195
131.535,-0.009155273,0.010375977
131.5355,-0.018005371,0.002441406
131.536,-0.032348633,-0.012817383
131.5365,-0.042114258,-0.024108887
131.537,-0.057983398,-0.035400391
131.5375,-0.079345703,-0.054626465
131.538,-0.084228516,-0.069580078
131.5385,-0.072937012,-0.067443848
131.539,-0.069274902,-0.064086914
131.5395,-0.103149414,-0.083618164
131.54,-0.100708008,-0.093994141
131.5405,-0.085754395,-0.084838867
131.541,-0.088806152,-0.085449219
131.5415,-0.08605957,-0.086975098
131.542,-0.069885254,-0.080566406
131.5425,-0.065002441,-0.077514648
131.543,-0.05065918,-0.067443848
131.5435,-0.025634766,-0.049133301
131.544,-0.009155273,-0.033569336
131.5445,0.004272461,-0.022583008
131.545,0.010681152,-0.014343262
131.5455,0.015869141,-0.009765625
131.546,0.034484863,0.00579834
131.5465,0.046386719,0.021972656
131.547,0.059509277,0.036621094
131.5475,0.08026123,0.054626465
131.548,0.084228516,0.068664551
131.5485,0.072937012,0.062561035
131.549,0.07019043,0.059204102
131.5495,0.101928711,0.081481934
131.55,0.098571777,0.090637207
131.5505,0.084533691,0.081787109
131.551,0.088195801,0.080871582
131.5515,0.086669922,0.084838867
131.552,0.070800781,0.077819824
131.5525,0.064697266,0.074462891
131.553,0.053100586,0.068054199
131.5535,0.028991699,0.048522949
131.554,0.009155273,0.032043457
131.5545,-0.001525879,0.016784668
131.555,-0.009765625,0.008544922
131.5555,-0.012817383,0.002441406
131.556,-0.029296875,-0.011291504
131.5565,-0.041809082,-0.020446777
131.557,-0.057678223,-0.030822754
131.5575,-0.078125,-0.053710938
131.558,-0.08605957,-0.065307617
131.5585,-0.072021484,-0.063476563
131.559,-0.070800781,-0.061035156
131.5595,-0.103149414,-0.082092285
131.56,-0.104370117,-0.093383789
131.5605,-0.090637207,-0.08972168
131.561,-0.091552734,-0.090637207
131.5615,-0.090637207,-0.093383789
131.562,-0.076293945,-0.082702637
131.5625,-0.07232666,-0.079650879
131.563,-0.060119629,-0.071105957
131.5635,-0.034179688,-0.050048828
131.564,-0.015258789,-0.03326416
131.5645,-0.000915527,-0.019836426
131.565,0.008239746,-0.010375977
131.5655,0.010681152,-0.006408691
131.566,0.026245117,0.006713867
131.5665,0.040283203,0.019226074
131.567,0.057067871,0.031433105
131.5675,0.074768066,0.051269531
131.568,0.080566406,0.065307617
131.5685,0.067443848,0.062866211
131.569,0.065917969,0.059814453
131.5695,0.097045898,0.081176758
131.57,0.094909668,0.090026855
131.5705,0.081481934,0.084838867
131.571,0.085144043,0.084228516
131.5715,0.086364746,0.085754395
131.572,0.072021484,0.076904297
131.5725,0.062561035,0.069885254
131.573,0.051269531,0.059204102
131.5735,0.027160645,0.043029785
131.574,0.00793457,0.026245117
131.5745,-0.003967285,0.011291504
131.575,-0.010681152,0.000305176
131.5755,-0.015869141,-0.004882813
131.576,-0.030517578,-0.014343262
131.5765,-0.042724609,-0.025024414
131.577,-0.05859375,-0.034179688
131.5775,-0.079650879,-0.053710938
131.578,-0.085754395,-0.069274902
131.5785,-0.071105957,-0.06652832
131.579,-0.069580078,-0.067138672
131.5795,-0.101928711,-0.087585449
131.58,-0.100708008,-0.099182129
131.5805,-0.088195801,-0.095214844
131.581,-0.086975098,-0.096435547
131.5815,-0.087890625,-0.096740723
131.582,-0.074462891,-0.088500977
131.5825,-0.069580078,-0.08026123
131.583,-0.05645752,-0.068969727
131.5835,-0.032348633,-0.047302246
131.584,-0.014648438,-0.027160645
131.5845,-0.001525879,-0.012512207
131.585,0.00579834,-0.004577637
131.5855,0.010681152,0.000305176
131.586,0.02746582,0.013427734
131.5865,0.039978027,0.025024414
131.587,0.055847168,0.037231445
131.5875,0.077209473,0.054931641
131.588,0.081481934,0.066223145
131.5885,0.068054199,0.062561035
131.589,0.067443848,0.063171387
131.5895,0.098266602,0.083007813
131.59,0.098571777,0.093078613
131.5905,0.085449219,0.087890625
131.591,0.084533691,0.089416504
131.5915,0.084533691,0.093078613
131.592,0.071716309,0.088195801
131.5925,0.063476563,0.084228516
131.593,0.049438477,0.072937012
131.5935,0.025939941,0.056762695
131.594,0.007629395,0.038757324
131.5945,-0.004577637,0.025024414
131.595,-0.014648438,0.015258789
131.5955,-0.020446777,0.007019043
131.596,-0.038757324,-0.007019043
131.5965,-0.047607422,-0.018310547
131.597,-0.061340332,-0.029296875
131.5975,-0.082092285,-0.049743652
131.598,-0.087890625,-0.063476563
131.5985,-0.075683594,-0.059204102
131.599,-0.074157715,-0.057678223
131.5995,-0.10559082,-0.077819824
131.6,-0.104675293,-0.086669922
131.6005,-0.090637207,-0.081481934
131.601,-0.088806152,-0.079345703
131.6015,-0.089416504,-0.081176758
131.602,-0.077209473,-0.076904297
131.6025,-0.071411133,-0.074768066
131.603,-0.05645752,-0.066833496
131.6035,-0.03112793,-0.048828125
131.604,-0.014343262,-0.03326416
131.6045,0.002746582,-0.016479492
131.605,0.010986328,-0.004882813
131.6055,0.012817383,0.001525879
131.606,0.03112793,0.01373291
131.6065,0.046691895,0.025634766
131.607,0.06072998,0.038757324
131.6075,0.079345703,0.057067871
131.608,0.084838867,0.073547363
131.6085,0.071105957,0.069885254
131.609,0.069580078,0.063476563
131.6095,NULL,NULL
131.61,0.098266602,0.09185791
131.6105,0.085754395,0.084228516
131.611,0.086669922,0.083618164
131.6115,0.086669922,0.085144043
131.612,0.07232666,0.081481934
131.6125,0.067749023,0.077819824
131.613,0.054626465,0.067749023
131.6135,0.031738281,0.052185059
131.614,0.012207031,0.037231445
131.6145,-0.001525879,0.024719238
131.615,-0.008850098,0.015869141
131.6155,-0.014038086,0.007324219
131.616,-0.03112793,-0.008544922
131.6165,-0.040893555,-0.018615723
131.617,-0.05645752,-0.030517578
131.6175,-0.077209473,-0.053710938
131.618,-0.086669922,-0.070495605
131.6185,-0.072937012,-0.068054199
131.619,-0.070495605,-0.067138672
131.6195,-0.101318359,-0.089111328
131.62,-0.101928711,-0.09979248
131.6205,-0.089111328,-0.090637207
131.621,-0.089416504,-0.087585449
131.6215,-0.091247559,-0.088806152
131.622,-0.075683594,-0.082397461
131.6225,-0.070800781,-0.075378418
131.623,-0.057373047,-0.067138672
131.6235,-0.03112793,-0.047912598
131.624,-0.013427734,-0.031738281
131.6245,0.000610352,-0.016479492
131.625,0.00793457,-0.006408691
131.6255,0.012207031,0.000305176
131.626,0.027160645,0.012817383
131.6265,0.038757324,0.026550293
131.627,0.054626465,0.039978027
131.6275,0.074157715,0.057678223
131.628,0.082702637,0.07019043
131.6285,0.071411133,0.066833496
131.629,0.068054199,0.065002441
131.6295,0.09979248,0.08605957
131.63,0.097961426,0.096435547
131.6305,0.083312988,0.088195801
131.631,0.083618164,0.086669922
131.6315,0.082092285,0.088500977
131.632,0.07019043,0.081787109
131.6325,0.064697266,0.078735352
131.633,0.051574707,0.068664551
131.6335,0.028686523,0.050048828
131.634,0.009765625,0.035400391
131.6345,-0.00579834,0.020751953
131.635,-0.014343262,0.010986328
131.6355,-0.01953125,0.003356934
131.636,-0.033874512,-0.011291504
131.6365,-0.044555664,-0.021057129
131.637,-0.059509277,-0.031738281
131.6375,-0.081176758,-0.051269531
131.638,-0.089111328,-0.062561035
131.6385,-0.07598877,-0.057373047
131.639,-0.072631836,-0.054931641
131.6395,-0.101318359,-0.077819824
131.64,-0.101013184,-0.088195801
131.6405,-0.088195801,-0.082092285
131.641,-0.088195801,-0.082702637
131.6415,-0.088195801,-0.08605957
131.642,-0.075683594,-0.079345703
131.6425,-0.068359375,-0.075073242
131.643,-0.057373047,-0.06652832
131.6435,-0.030212402,-0.050048828
131.644,-0.01159668,-0.035705566
131.6445,0.001525879,-0.023803711
131.645,0.008850098,-0.015258789
131.6455,0.010986328,-0.007324219
131.646,0.027770996,0.009765625
131.6465,0.041503906,0.020141602
131.647,0.055541992,0.030212402
131.6475,0.076904297,0.047912598
131.648,0.087280273,0.062255859
131.6485,0.071411133,0.056762695
131.649,0.068359375,0.054016113
131.6495,0.100097656,0.074768066
131.65,0.099182129,0.08605957
131.6505,0.084838867,0.079956055
131.651,0.085449219,0.078125
131.6515,0.083618164,0.082702637
131.652,0.07232666,0.076293945
131.6525,0.066223145,0.073242188
131.653,0.050964355,0.06072998
131.6535,0.025939941,0.04119873
131.654,0.007629395,0.025024414
131.6545,-0.001525879,0.009765625
131.655,-0.011901855,-0.001831055
131.6555,-0.017700195,-0.011291504
131.656,-0.033569336,-0.025939941
131.6565,-0.043640137,-0.038757324
131.657,-0.05859375,-0.051269531
131.6575,-0.081176758,-0.068664551
131.658,-0.085754395,-0.082397461
131.6585,-0.072021484,-0.079956055
131.659,-0.071716309,-0.075683594
131.6595,-0.10559082,-0.09185791
131.66,-0.104370117,-0.09979248
131.6605,-0.092163086,-0.093994141
131.661,-0.094299316,-0.090637207
131.6615,-0.092468262,-0.09552002
131.662,-0.077514648,-0.089416504
131.6625,-0.072631836,-0.08605957
131.663,-0.060424805,-0.078430176
131.6635,-0.034484863,-0.061340332
131.664,-0.017700195,-0.044555664
131.6645,-0.00213623,-0.030822754
131.665,0.004577637,-0.022277832
131.6655,0.010070801,-0.014953613
131.666,0.026550293,-0.001831055
131.6665,0.042724609,0.010986328
131.667,0.054626465,0.022277832
131.6675,0.072937012,0.042724609
131.668,0.082702637,0.057678223
131.6685,0.068359375,0.053710938
131.669,0.063476563,0.052185059
131.6695,0.094909668,0.073547363
131.67,0.095214844,0.084838867
131.6705,0.081176758,0.077819824
131.671,0.080566406,0.077819824
131.6715,0.080871582,0.079956055
131.672,0.065307617,0.069580078
131.6725,0.061340332,0.067443848
131.673,0.046691895,0.057678223
131.6735,0.023193359,0.039672852
131.674,0.002746582,0.024108887
131.6745,-0.008544922,0.012817383
131.675,-0.018005371,0.003662109
131.6755,-0.02532959,-0.000915527
131.676,-0.039978027,-0.017700195
131.6765,-0.049133301,-0.029907227
131.677,-0.064086914,-0.039672852
131.6775,-0.085449219,-0.058288574
131.678,-0.095214844,-0.072021484
131.6785,-0.082702637,-0.067138672
131.679,-0.080566406,-0.065002441
131.6795,-0.110168457,-0.085754395
131.68,-0.110473633,-0.095825195
131.6805,-0.096435547,-0.091552734
131.681,-0.096130371,-0.092468262
131.6815,-0.096130371,-0.092773438
131.682,-0.08026123,-0.084838867
131.6825,-0.077209473,-0.082397461
131.683,-0.062866211,-0.074462891
131.6835,-0.036621094,-0.057678223
131.684,-0.01953125,-0.042114258
131.6845,-0.004272461,-0.029296875
131.685,0.003051758,-0.01953125
131.6855,0.004272461,-0.012817383
131.686,0.02166748,0.00213623
131.6865,0.037536621,0.016784668
131.687,0.052185059,0.029907227
131.6875,0.072937012,0.047302246
131.688,0.081176758,0.061950684
131.6885,0.067749023,0.058898926
131.689,0.063476563,0.055847168
131.6895,0.094299316,0.074768066
131.69,0.09185791,0.08605957
131.6905,0.079345703,0.079345703
131.691,0.078735352,0.080871582
131.6915,0.080566406,0.079956055
131.692,0.067443848,0.072021484
131.6925,0.06072998,0.067138672
131.693,0.046691895,0.057067871
131.6935,0.022888184,0.039672852
131.694,0.00579834,0.021972656
131.6945,-0.010375977,0.008544922
131.695,-0.018920898,-0.003356934
131.6955,-0.022888184,-0.009155273
131.696,-0.041809082,-0.023193359
131.6965,-0.05279541,-0.033569336
131.697,-0.068054199,-0.045776367
131.6975,-0.087280273,-0.062866211
131.698,-0.094909668,-0.073547363
131.6985,-0.080871582,-0.072021484
131.699,-0.077514648,-0.069274902
131.6995,-0.107116699,-0.089111328
131.7,-0.108947754,-0.09765625
131.7005,-0.09765625,-0.090942383
131.701,-0.099182129,-0.090026855
131.7015,-0.099182129,-0.093078613
131.702,-0.083007813,-0.086975098
131.7025,-0.078430176,-0.081787109
131.703,-0.064697266,-0.072937012
131.7035,-0.039672852,-0.054626465
131.704,-0.02166748,-0.037841797
131.7045,-0.00793457,-0.024108887
131.705,0.001220703,-0.015258789
131.7055,0.004882813,-0.010986328
131.706,0.021057129,0.002746582
131.7065,0.035705566,0.014648438
131.707,0.053100586,0.026855469
131.7075,0.072631836,0.04699707
131.708,0.082092285,0.058898926
131.7085,0.068664551,0.051574707
131.709,0.065002441,0.047302246
131.7095,0.09765625,0.067749023
131.71,0.095825195,0.079040527
131.7105,0.082092285,0.071716309
131.711,0.083312988,0.070800781
131.7115,0.081787109,0.074462891
131.712,0.068054199,0.069274902
131.7125,0.059509277,0.06439209
131.713,0.045776367,0.057678223
131.7135,0.023498535,0.042419434
131.714,0.003662109,0.029602051
131.7145,-0.008850098,0.016784668
131.715,-0.017700195,0.005187988
131.7155,-0.020751953,-0.00213623
131.716,-0.0390625,-0.017700195
131.7165,-0.05065918,-0.029296875
131.717,-0.062561035,-0.042114258
131.7175,-0.084533691,-0.061340332
131.718,-0.090942383,-0.074768066
131.7185,-0.078430176,-0.070495605
131.719,-0.072937012,-0.067138672
131.7195,-0.108032227,-0.088195801
131.72,-0.108032227,-0.097961426
131.7205,-0.091552734,-0.090026855
131.721,-0.093078613,-0.08605957
131.7215,-0.093078613,-0.08605957
131.722,-0.076293945,-0.078125
131.7225,-0.071716309,-0.075378418
131.723,-0.061340332,-0.066223145
131.7235,-0.03326416,-0.049743652
131.724,-0.014953613,-0.034484863
131.7245,-0.002441406,-0.021057129
131.725,0.006103516,-0.010070801
131.7255,0.008850098,-0.006408691
131.726,0.027160645,0.007019043
131.7265,0.043640137,0.021362305
131.727,0.059814453,0.034790039
131.7275,0.079956055,0.053405762
131.728,0.086364746,0.064086914
131.7285,0.074157715,0.061035156
131.729,0.070495605,0.05645752
131.7295,0.106811523,0.079650879
131.73,0.10345459,0.088195801
131.7305,0.085754395,0.078735352
131.731,0.087890625,0.079345703
131.7315,0.088195801,0.08026123
131.732,0.077514648,0.071716309
131.7325,0.067749023,0.068054199
131.733,0.052490234,0.060424805
131.7335,0.028991699,0.041809082
131.734,0.009460449,0.030822754
131.7345,-0.003051758,0.017700195
131.735,-0.01159668,0.009460449
131.7355,-0.020141602,0.002746582
131.736,-0.038146973,-0.012512207
131.7365,-0.045166016,-0.022583008
131.737,-0.059509277,-0.031433105
131.7375,-0.082092285,-0.052185059
131.738,-0.090637207,-0.063781738
131.7385,-0.08026123,-0.060424805
131.739,-0.076293945,-0.058898926
131.7395,-0.107421875,-0.082092285
131.74,-0.106201172,-0.091552734
131.7405,-0.09185791,-0.085754395
131.741,-0.093688965,-0.085144043
131.7415,-0.093994141,-0.087280273
131.742,-0.078430176,-0.079345703
131.7425,-0.072631836,-0.07598877
131.743,-0.06072998,-0.067443848
131.7435,-0.035705566,-0.047912598
131.744,-0.016174316,-0.032043457
131.7445,-0.003356934,-0.018005371
131.745,0.003662109,-0.009155273
131.7455,0.004882813,-0.006408691
131.746,0.021972656,0.005493164
131.7465,0.034179688,0.018310547
131.747,0.05065918,0.028381348
131.7475,0.071105957,0.045776367
131.748,0.079040527,0.057678223
131.7485,0.06652832,0.050964355
131.749,0.067138672,0.048522949
131.7495,0.100708008,0.073852539
131.75,0.099182129,0.083618164
131.7505,0.084533691,0.075073242
131.751,0.086669922,0.075378418
131.7515,0.085449219,0.079650879
131.752,0.073547363,0.075073242
131.7525,0.065307617,0.071105957
131.753,0.051269531,0.063476563
131.7535,0.027770996,0.048522949
131.754,0.005493164,0.032958984
131.7545,-0.005187988,0.021972656
131.755,-0.014343262,0.009765625
131.7555,-0.021972656,0.00213623
131.756,-0.039367676,-0.012207031
131.7565,-0.049743652,-0.020751953
131.757,-0.064697266,-0.029602051
131.7575,-0.085754395,-0.048828125
131.758,-0.092468262,-0.064086914
131.7585,-0.082397461,-0.060119629
131.759,-0.076293945,-0.057067871
131.7595,-0.108947754,-0.078430176
131.76,-0.108947754,-0.088806152
131.7605,-0.094909668,-0.083618164
131.761,-0.094909668,-0.08392334
131.7615,-0.093994141,-0.08605957
131.762,-0.079956055,-0.079650879
131.7625,-0.072631836,-0.074157715
131.763,-0.061340332,-0.06652832
131.7635,-0.036621094,-0.048522949
131.764,-0.017700195,-0.032043457
131.7645,-0.004272461,-0.017089844
131.765,0.003051758,-0.00793457
131.7655,0.006713867,-0.000915527
131.766,0.023193359,0.012512207
131.7665,0.037841797,0.021972656
131.767,0.052490234,0.035095215
131.7675,0.071411133,0.054016113
131.768,0.081176758,0.064697266
131.7685,0.066833496,0.060119629
131.769,0.066223145,0.059204102
131.7695,0.097351074,0.077819824
131.77,0.093994141,0.090637207
131.7705,0.083007813,0.085449219
131.771,0.083007813,0.08026123
131.7715,0.082702637,0.085754395
131.772,0.070495605,0.078430176
131.7725,0.061035156,0.073852539
131.773,0.048828125,0.067138672
131.7735,0.026550293,0.052490234
131.774,0.005187988,0.034179688
131.7745,-0.007324219,0.021362305
131.775,-0.013427734,0.013427734
131.7755,-0.021362305,0.003662109
131.776,-0.036010742,-0.01159668
131.7765,-0.046081543,-0.023193359
131.777,-0.060119629,-0.034790039
131.7775,-0.082702637,-0.058288574
131.778,-0.090942383,-0.075073242
131.7785,-0.078735352,-0.072631836
131.779,-0.076293945,-0.069885254
131.7795,-0.107421875,-0.087280273
131.78,-0.106811523,-0.094909668
131.7805,-0.092468262,-0.086364746
131.781,-0.093383789,-0.084533691
131.7815,-0.093994141,-0.087280273
131.782,-0.081481934,-0.080871582
131.7825,-0.076599121,-0.076904297
131.783,-0.063171387,-0.067138672
131.7835,-0.035400391,-0.050048828
131.784,-0.017700195,-0.034179688
131.7845,-0.000915527,-0.021057129
131.785,0.006103516,-0.01159668
131.7855,0.009155273,-0.003662109
131.786,0.02746582,0.009155273
131.7865,0.041503906,0.020751953
131.787,0.054321289,0.03326416
131.7875,0.075378418,0.053100586
131.788,0.082397461,0.065307617
131.7885,0.069885254,0.05859375
131.789,0.065002441,0.055236816
131.7895,0.097351074,0.074768066
131.79,0.097045898,0.084838867
131.7905,0.082092285,0.079345703
131.791,0.083312988,0.078430176
131.7915,0.079956055,0.076904297
131.792,0.068664551,0.073852539
131.7925,0.061035156,0.071105957
131.793,0.047302246,0.061035156
131.7935,0.025024414,0.043334961
131.794,0.009155273,0.028686523
131.7945,-0.005187988,0.013122559
131.795,-0.014953613,0.002746582
131.7955,-0.019836426,-0.000915527
131.796,-0.036010742,-0.010070801
131.7965,-0.045166016,-0.020141602
131.797,-0.059204102,-0.029296875
131.7975,-0.081787109,-0.047912598
131.798,-0.088195801,-0.059509277
131.7985,-0.075378418,-0.05645752
131.799,-0.071105957,-0.054321289
131.7995,-0.101013184,-0.07598877
131.8,-0.097961426,-0.084838867
131.8005,-0.086364746,-0.077514648
131.801,-0.088806152,-0.078735352
131.8015,-0.085449219,-0.083007813
131.802,-0.070495605,-0.07598877
131.8025,-0.064697266,-0.073852539
131.803,-0.051879883,-0.06439209
131.8035,-0.025634766,-0.048522949
131.804,-0.009155273,-0.028991699
131.8045,0.005187988,-0.01373291
131.805,0.012512207,-0.003967285
131.8055,0.014953613,0.000305176
131.806,0.034179688,0.011901855
131.8065,0.048522949,0.02532959
131.807,0.061035156,0.036621094
131.8075,0.081787109,0.054016113
131.808,0.090026855,0.066223145
