Time,EMG_zyg,EMG_cor
10.0005,-0.00213623,-0.000305176
10.001,0.003662109,0.003967285
10.0015,0.003051758,0.008239746
10.002,0.002441406,0.005187988
10.0025,0.010681152,0.003051758
10.003,0.014648438,0.000305176
10.0035,0.018005371,0.002746582
10.004,0.020751953,0.00213623
10.0045,0.01739502,0.002746582
10.005,0.019836426,0.003967285
10.0055,0.024719238,0.006103516
10.006,0.029296875,0.008850098
10.0065,0.023803711,0.007019043
10.007,0.017700195,0.005493164
10.0075,0.018615723,0.003662109
10.008,0.018005371,0.00213623
10.0085,0.021362305,-0.000915527
10.009,0.01953125,-0.001831055
10.0095,0.012207031,-0.000915527
10.01,0.003356934,-0.000305176
10.0105,-0.003356934,-0.000610352
10.011,-0.006103516,0.002441406
10.0115,-0.011291504,0.007629395
10.012,-0.013427734,0.011291504
10.0125,-0.014953613,0.009155273
10.013,-0.016174316,0.00793457
10.0135,-0.023193359,0.003967285
10.014,-0.030517578,-0.004272461
10.0145,-0.028076172,-0.007019043
10.015,-0.025024414,-0.006408691
10.0155,-0.032043457,-0.007629395
10.016,-0.038146973,-0.009155273
10.0165,-0.032348633,-0.011291504
10.017,-0.031738281,-0.01159668
10.0175,-0.030212402,-0.010681152
10.018,-0.023803711,-0.009765625
10.0185,-0.01739502,-0.009155273
10.019,-0.013427734,-0.013122559
10.0195,-0.010986328,-0.015258789
10.02,-0.006408691,-0.012817383
10.0205,-0.003662109,-0.012207031
10.021,-0.000915527,-0.007019043
10.0215,0.001831055,-0.004272461
10.022,0.007324219,-0.005493164
10.0225,0.009460449,-0.004882813
10.023,0.011901855,-0.003051758
10.0235,0.017700195,0.002746582
10.024,0.025939941,0.006103516
10.0245,0.024719238,0.007019043
10.025,0.023803711,0.008544922
10.0255,0.032043457,0.01159668
10.026,0.037841797,0.012207031
10.0265,0.034484863,0.006408691
10.027,0.028991699,0.00213623
10.0275,0.02746582,0.00213623
10.028,0.019836426,0.000610352
10.0285,0.018310547,0.00579834
10.029,0.018005371,0.006408691
10.0295,0.015869141,0.00793457
10.03,0.014648438,0.010681152
10.0305,0.012817383,0.009765625
10.031,0.00793457,0.008850098
10.0315,0.001525879,0.008850098
10.032,-0.006408691,0.009155273
10.0325,-0.012207031,0.006713867
10.033,-0.019226074,0.005493164
10.0335,-0.024414063,0.003051758
10.034,-0.028381348,-0.001220703
10.0345,-0.024719238,-0.004272461
10.035,-0.022277832,-0.009460449
10.0355,-0.029296875,-0.014953613
10.036,-0.034790039,-0.016174316
10.0365,-0.028076172,-0.019836426
10.037,-0.021972656,-0.023193359
10.0375,-0.021972656,-0.024719238
10.038,-0.017089844,-0.019226074
10.0385,-0.015258789,-0.019836426
10.039,-0.018615723,-0.020141602
10.0395,-0.014038086,-0.018920898
10.04,-0.00579834,-0.014648438
10.0405,-0.001525879,-0.007629395
10.041,0.003967285,-0.003967285
10.0415,0.00579834,-0.002746582
10.042,0.009155273,0
10.0425,0.013122559,0.005493164
10.043,0.015563965,0.003967285
10.0435,0.02166748,0.002746582
10.044,0.025634766,0.003662109
10.0445,0.022583008,0.004577637
10.045,0.020751953,0.004577637
10.0455,0.024719238,0.006408691
10.046,0.032043457,0.003051758
10.0465,0.027770996,0.001220703
10.047,0.022888184,0.003051758
10.0475,0.021972656,0.006713867
10.048,0.017700195,0.012207031
10.0485,0.014648438,0.018615723
10.049,0.013427734,0.021362305
10.0495,0.008239746,0.019836426
10.05,0.002746582,0.01953125
10.0505,0.002441406,0.018310547
10.051,0.001220703,0.018005371
10.0515,-0.001831055,0.01159668
10.052,-0.003967285,0.006103516
10.0525,-0.007324219,0.001525879
10.053,-0.015258789,0.002746582
10.0535,-0.025634766,0.004272461
10.054,-0.028686523,0.003662109
10.0545,-0.02532959,0.001525879
10.055,-0.022888184,-0.005187988
10.0555,-0.028686523,-0.01159668
10.056,-0.033569336,-0.018005371
10.0565,-0.032653809,-0.020446777
10.057,-0.029296875,-0.020141602
10.0575,-0.026855469,-0.021362305
10.058,-0.021362305,-0.015869141
10.0585,-0.020141602,-0.008544922
10.059,-0.017089844,-0.006103516
10.0595,-0.008544922,-0.002746582
10.06,-0.000915527,-0.000610352
10.0605,-0.001525879,-0.000610352
10.061,0.000915527,-0.001220703
10.0615,0.003051758,0.000610352
10.062,0.009765625,0.001220703
10.0625,0.012512207,0.002441406
10.063,0.011291504,0.00213623
10.0635,0.01739502,0.004882813
10.064,0.024108887,0.001831055
10.0645,0.02166748,-0.000915527
10.065,0.020446777,0.001220703
10.0655,0.028991699,-0.000305176
10.066,0.034790039,0.000305176
10.0665,0.03112793,-0.000305176
10.067,0.02746582,0
10.0675,0.029296875,0.001220703
10.068,0.02746582,0.005493164
10.0685,0.022583008,0.010070801
10.069,0.01953125,0.012817383
10.0695,0.012512207,0.016174316
10.07,0.005187988,0.020751953
10.0705,0.000610352,0.018615723
10.071,0.000305176,0.014343262
10.0715,-0.004272461,0.010070801
10.072,-0.008850098,0.00579834
10.0725,-0.010986328,0.000915527
10.073,-0.015563965,-0.003662109
10.0735,-0.023498535,-0.00579834
10.074,-0.028381348,-0.008850098
10.0745,-0.028381348,-0.010986328
10.075,-0.02532959,-0.014648438
10.0755,-0.029907227,-0.018615723
10.076,-0.035095215,-0.018005371
10.0765,-0.028991699,-0.016174316
10.077,-0.024108887,-0.010986328
10.0775,-0.024414063,-0.006713867
10.078,-0.02166748,-0.005493164
10.0785,-0.019226074,-0.003967285
10.079,-0.017089844,-0.003662109
10.0795,-0.010070801,-0.003356934
10.08,-0.003356934,-0.008850098
10.0805,-0.000915527,-0.013427734
10.081,0.00213623,-0.011291504
10.0815,0.003967285,-0.014953613
10.082,0.006408691,-0.015563965
10.0825,0.009765625,-0.014343262
10.083,0.014648438,-0.011901855
10.0835,0.021362305,-0.006103516
10.084,0.026550293,-0.002441406
10.0845,0.021362305,-0.002746582
10.085,0.019226074,-0.003051758
10.0855,0.022583008,-0.001525879
10.086,0.030822754,-0.000610352
10.0865,0.028991699,0.001831055
10.087,0.028381348,0.001220703
10.0875,0.028686523,-0.001220703
10.088,0.023803711,-0.003051758
10.0885,0.02166748,-0.00579834
10.089,0.020141602,-0.00579834
10.0895,0.012512207,-0.006408691
10.09,0.004882813,-0.008239746
10.0905,0.000305176,-0.009155273
10.091,-0.004272461,-0.007324219
10.0915,-0.007629395,-0.006713867
10.092,-0.011291504,-0.004272461
10.0925,-0.014038086,-0.004272461
10.093,-0.014648438,-0.001831055
10.0935,-0.017700195,-0.001831055
10.094,-0.023803711,-0.001220703
10.0945,-0.02166748,0.000610352
10.095,-0.017089844,0
10.0955,-0.024414063,-0.003051758
10.096,-0.029907227,-0.004272461
10.0965,-0.026855469,-0.004882813
10.097,-0.024719238,-0.003356934
10.0975,-0.024414063,-0.004272461
10.098,-0.020751953,-0.006103516
10.0985,-0.021972656,-0.009155273
10.099,-0.025024414,-0.012817383
10.0995,-0.019226074,-0.008850098
10.1,-0.009765625,-0.006103516
10.1005,-0.003051758,0.001525879
10.101,0.001220703,0.009765625
10.1015,0.003967285,0.014953613
10.102,0.003967285,0.014038086
10.1025,0.00579834,0.012207031
10.103,0.010070801,0.009765625
10.1035,0.018005371,0.010986328
10.104,0.027160645,0.016479492
10.1045,0.027770996,0.015258789
10.105,0.025024414,0.015563965
10.1055,0.025634766,0.013122559
10.106,0.026855469,0.014038086
10.1065,0.025634766,0.01373291
10.107,0.021972656,0.01159668
10.1075,0.024719238,0.014648438
10.108,0.02532959,0.012512207
10.1085,0.024719238,0.007629395
10.109,0.021362305,0.008850098
10.1095,0.012817383,0.014648438
10.11,0.007324219,0.014343262
10.1105,0.006103516,0.009155273
10.111,0.000610352,0.002441406
10.1115,-0.006103516,0.001220703
10.112,-0.013122559,-0.000915527
10.1125,-0.014953613,-0.004577637
10.113,-0.013122559,-0.008544922
10.1135,-0.021362305,-0.012512207
10.114,-0.026855469,-0.017089844
10.1145,-0.022277832,-0.015869141
10.115,-0.017700195,-0.016784668
10.1155,-0.026245117,-0.016784668
10.116,-0.032348633,-0.02166748
10.1165,-0.024719238,-0.025634766
10.117,-0.019836426,-0.032958984
10.1175,-0.021972656,-0.035095215
10.118,-0.018310547,-0.032348633
10.1185,-0.016479492,-0.029602051
10.119,-0.016479492,-0.02746582
10.1195,-0.009460449,-0.022277832
10.12,-0.003356934,-0.020751953
10.1205,-0.003356934,-0.019226074
10.121,0.001831055,-0.018615723
10.1215,0.007019043,-0.017700195
10.122,0.00793457,-0.012817383
10.1225,0.009155273,-0.005493164
10.123,0.010986328,-0.00213623
10.1235,0.016784668,0.001525879
10.124,0.02532959,0.00793457
10.1245,0.022888184,0.009155273
10.125,0.022583008,0.012207031
10.1255,0.03112793,0.020446777
10.126,0.038452148,0.024108887
10.1265,0.03326416,0.023803711
10.127,0.026550293,0.021362305
10.1275,0.022888184,0.014343262
10.128,0.015869141,0.007629395
10.1285,0.016784668,0.007324219
10.129,0.018615723,0.00793457
10.1295,0.016784668,0.003662109
10.13,0.012512207,-0.002746582
10.1305,0.00793457,-0.005493164
10.131,0.001525879,-0.008544922
10.1315,-0.006408691,-0.014648438
10.132,-0.010070801,-0.020751953
10.1325,-0.014953613,-0.018005371
10.133,-0.018310547,-0.014343262
10.1335,-0.024108887,-0.015869141
10.134,-0.028381348,-0.018615723
10.1345,-0.02746582,-0.018005371
10.135,-0.024414063,-0.01373291
10.1355,-0.029296875,-0.008544922
10.136,-0.032958984,-0.004882813
10.1365,-0.028381348,-0.002746582
10.137,-0.022888184,0.002441406
10.1375,-0.025939941,0.000305176
10.138,-0.024108887,0.000610352
10.1385,-0.024414063,0.000305176
10.139,-0.022583008,0
10.1395,-0.017700195,-0.000610352
10.14,-0.010681152,0.000915527
10.1405,-0.00213623,0.003967285
10.141,0.002746582,0.008850098
10.1415,0.001525879,0.010681152
10.142,0.002441406,0.006408691
10.1425,0.00793457,0.003967285
10.143,0.009460449,0.004272461
10.1435,0.016174316,0.003967285
10.144,0.021972656,0.006408691
10.1445,0.022583008,0.008544922
10.145,0.021972656,0.009765625
10.1455,0.029602051,0.01159668
10.146,0.038146973,0.007629395
10.1465,0.033569336,0.010375977
10.147,0.025939941,0.01373291
10.1475,0.027160645,0.006713867
10.148,0.026550293,-0.003967285
10.1485,0.01953125,-0.000915527
10.149,0.015563965,0.000305176
10.1495,0.01159668,0.001220703
10.15,0.00579834,-0.001220703
10.1505,-0.001831055,-0.003967285
10.151,-0.00793457,0.000305176
10.1515,-0.01159668,0.00213623
10.152,-0.014648438,0.005493164
10.1525,-0.015258789,0.007629395
10.153,-0.014953613,0.008850098
10.1535,-0.020751953,0.006103516
10.154,-0.02746582,0.001831055
10.1545,-0.025939941,-0.00213623
10.155,-0.024414063,-0.006408691
10.1555,-0.030822754,-0.008239746
10.156,-0.036315918,-0.010681152
10.1565,-0.033569336,-0.017089844
10.157,-0.028686523,-0.018310547
10.1575,-0.03112793,-0.018615723
10.158,-0.028381348,-0.017089844
10.1585,-0.026245117,-0.016479492
10.159,-0.025024414,-0.017089844
10.1595,-0.015869141,-0.014648438
10.16,-0.005493164,-0.012512207
10.1605,-0.000305176,-0.01159668
10.161,0.001220703,-0.011291504
10.1615,0.001220703,-0.011291504
10.162,0.004577637,-0.010986328
10.1625,0.009155273,-0.011291504
10.163,0.010681152,-0.008850098
10.1635,0.016784668,-0.011901855
10.164,0.02166748,-0.009460449
10.1645,0.018310547,-0.008544922
10.165,0.018005371,-0.009460449
10.1655,0.026550293,-0.008850098
10.166,0.031433105,-0.004577637
10.1665,0.028686523,0.001525879
10.167,0.025024414,0.003051758
10.1675,0.026550293,0.008239746
10.168,0.024719238,0.012207031
10.1685,0.022583008,0.010070801
10.169,0.021057129,0.001831055
10.1695,0.018920898,0.003356934
10.17,0.010986328,0.001831055
10.1705,0.002441406,0.003356934
10.171,-0.004272461,0.005493164
10.1715,-0.007019043,0.00579834
10.172,-0.012817383,0.008239746
10.1725,-0.015869141,0.010070801
10.173,-0.018005371,0.010070801
10.1735,-0.022888184,0.004882813
10.174,-0.028686523,0
10.1745,-0.026550293,-0.001220703
10.175,-0.02532959,-0.001525879
10.1755,-0.032958984,0.002441406
10.176,-0.038146973,0.002746582
10.1765,-0.030822754,0.004577637
10.177,-0.025634766,0.000915527
10.1775,-0.028991699,-0.010070801
10.178,-0.02532959,-0.016174316
10.1785,-0.027160645,-0.017089844
10.179,-0.028076172,-0.016784668
10.1795,-0.021362305,-0.014953613
10.18,-0.01373291,-0.016784668
10.1805,-0.007019043,-0.014038086
10.181,-0.000305176,-0.017089844
10.1815,0.004882813,-0.013427734
10.182,0.00793457,-0.007324219
10.1825,0.012207031,-0.006103516
10.183,0.014953613,-0.002441406
10.1835,0.01739502,0.009460449
10.184,0.025024414,0.018310547
10.1845,0.028381348,0.018920898
10.185,0.022888184,0.016174316
10.1855,0.029296875,0.011901855
10.186,0.032653809,0.00579834
10.1865,0.025634766,0.001831055
10.187,0.019836426,0
10.1875,0.022277832,-0.001220703
10.188,0.018005371,-0.000305176
10.1885,0.016174316,-0.002441406
10.189,0.015563965,0
10.1895,0.008544922,-0.00213623
10.19,0.000305176,-0.006103516
10.1905,0.001220703,-0.010681152
10.191,-0.001220703,-0.012817383
10.1915,-0.003967285,-0.013122559
10.192,-0.010375977,-0.013122559
10.1925,-0.013427734,-0.010986328
10.193,-0.014038086,-0.009155273
10.1935,-0.017089844,-0.012512207
10.194,-0.023498535,-0.015258789
10.1945,-0.024108887,-0.013427734
10.195,-0.024719238,-0.009765625
10.1955,-0.03112793,-0.00213623
10.196,-0.036315918,0
10.1965,-0.029602051,-0.000610352
10.197,-0.023803711,-0.001525879
10.1975,-0.025634766,-0.003356934
10.198,-0.021362305,-0.009765625
10.1985,-0.022583008,-0.011291504
10.199,-0.01953125,-0.010070801
10.1995,-0.008850098,-0.003967285
10.2,0,0.003051758
10.2005,0,0.001525879
10.201,0.000305176,-0.00213623
10.2015,0.001525879,-0.001220703
10.202,0.006408691,-0.001220703
10.2025,0.006408691,0.002746582
10.203,0.008850098,0.007324219
10.2035,0.014953613,0.013122559
10.204,0.023193359,0.015563965
10.2045,0.021057129,0.01159668
10.205,0.018920898,0.003662109
10.2055,0.028381348,0.004577637
10.206,0.032348633,0.009460449
10.2065,0.02532959,0.010070801
10.207,0.022888184,0.008239746
10.2075,0.024719238,0.007629395
10.208,0.021362305,0.005493164
10.2085,0.01953125,0.00213623
10.209,0.017700195,-0.002441406
10.2095,0.009765625,-0.003356934
10.21,0.000610352,0.00579834
10.2105,-0.004272461,0.009460449
10.211,-0.007324219,0.014038086
10.2115,-0.01159668,0.017089844
10.212,-0.014648438,0.020751953
10.2125,-0.011901855,0.019226074
10.213,-0.012207031,0.022583008
10.2135,-0.01953125,0.025939941
10.214,-0.027160645,0.026855469
10.2145,-0.024108887,0.016479492
10.215,-0.025024414,0.008544922
10.2155,-0.034790039,0.001525879
10.216,-0.041809082,-0.003051758
10.2165,-0.037841797,-0.003967285
10.217,-0.028686523,-0.006103516
10.2175,-0.022277832,-0.014038086
10.218,-0.016174316,-0.018005371
10.2185,-0.018310547,-0.01739502
10.219,-0.020446777,-0.019836426
10.2195,-0.013122559,-0.022583008
10.22,-0.000915527,-0.020751953
10.2205,0.001525879,-0.016479492
10.221,0.003967285,-0.013122559
10.2215,0.004577637,-0.013122559
10.222,0.007324219,-0.014648438
10.2225,0.013122559,-0.020446777
10.223,0.012207031,-0.020141602
10.2235,0.016479492,-0.017700195
10.224,0.021362305,-0.014343262
10.2245,0.018310547,-0.011901855
10.225,0.020446777,-0.008239746
10.2255,0.025634766,-0.00579834
10.226,0.028076172,0
10.2265,0.022888184,0.005493164
10.227,0.021362305,0.008850098
10.2275,0.025024414,0.009460449
10.228,0.023803711,0.007324219
10.2285,0.023498535,0.006103516
10.229,0.018920898,0.00213623
10.2295,0.014038086,0.003967285
10.23,0.010070801,0.002441406
10.2305,0.003356934,-0.000610352
10.231,-0.003662109,-0.004882813
10.2315,-0.007324219,-0.009765625
10.232,-0.009765625,-0.01159668
10.2325,-0.012512207,-0.017700195
10.233,-0.01739502,-0.014648438
10.2335,-0.02532959,-0.006408691
10.234,-0.03112793,-0.007019043
10.2345,-0.024414063,-0.008544922
10.235,-0.022583008,-0.01159668
10.2355,-0.029296875,-0.011901855
10.236,-0.035400391,-0.01373291
10.2365,-0.028076172,-0.012512207
10.237,-0.020141602,-0.008239746
10.2375,-0.023193359,-0.008850098
10.238,-0.02166748,-0.010681152
10.2385,-0.019226074,-0.01159668
10.239,-0.015869141,-0.012207031
10.2395,-0.010070801,-0.012512207
10.24,-0.003967285,-0.009765625
10.2405,0.000305176,-0.006103516
10.241,0.007019043,-0.003051758
10.2415,0.007629395,0.000305176
10.242,0.008239746,0.003356934
10.2425,0.009460449,0.007019043
10.243,0.012817383,0.008239746
10.2435,0.018005371,0.010681152
10.244,0.022888184,0.010986328
10.2445,0.018920898,0.012512207
10.245,0.020446777,0.012207031
10.2455,0.030517578,0.011291504
10.246,0.036621094,0.014038086
10.2465,0.032348633,0.012817383
10.247,0.026245117,0.012207031
10.2475,0.024108887,0.015869141
10.248,0.020751953,0.019226074
10.2485,0.020751953,0.014953613
10.249,0.020141602,0.010681152
10.2495,0.014343262,0.003356934
10.25,0.00579834,0.00579834
10.2505,0.000305176,0.007019043
10.251,-0.003662109,0.00213623
10.2515,-0.005187988,0.007324219
10.252,-0.006408691,0.010375977
10.2525,-0.010681152,0.008239746
10.253,-0.018310547,0.003967285
10.2535,-0.027160645,0
10.254,-0.02746582,-0.003967285
10.2545,-0.018615723,0.001525879
10.255,-0.015258789,0.006408691
10.2555,-0.026550293,0.007629395
10.256,-0.035095215,0.007019043
10.2565,-0.032653809,0.01373291
10.257,-0.025939941,0.013122559
10.2575,-0.023803711,0.004577637
10.258,-0.022277832,0.001525879
10.2585,-0.024108887,-0.003967285
10.259,-0.025939941,-0.007629395
10.2595,-0.018310547,-0.010986328
10.26,-0.009155273,-0.013427734
10.2605,-0.003967285,-0.019226074
10.261,0.002746582,-0.025634766
10.2615,0.003662109,-0.025024414
10.262,0.007324219,-0.021362305
10.2625,0.014648438,-0.022888184
10.263,0.017700195,-0.020751953
10.2635,0.022583008,-0.017089844
10.264,0.02746582,-0.014648438
10.2645,0.025024414,-0.01373291
10.265,0.022888184,-0.013122559
10.2655,0.030517578,-0.009765625
10.266,0.034484863,-0.005187988
10.2665,0.030517578,-0.003967285
10.267,0.024414063,-0.004272461
10.2675,0.024719238,-0.004577637
10.268,0.022277832,-0.00793457
10.2685,0.023193359,-0.009460449
10.269,0.018920898,-0.004577637
10.2695,0.010070801,-0.003967285
10.27,0.003356934,-0.005493164
10.2705,-0.000915527,-0.00213623
10.271,-0.007019043,-0.000305176
10.2715,-0.008544922,0.001831055
10.272,-0.010681152,0.000915527
10.2725,-0.015869141,0.000305176
10.273,-0.01953125,0.000610352
10.2735,-0.024108887,-0.001831055
10.274,-0.025939941,0.000305176
10.2745,-0.020446777,0.004272461
10.275,-0.018615723,0.005493164
10.2755,-0.029296875,0.003051758
10.276,-0.035705566,0.000305176
10.2765,-0.033569336,-0.003051758
10.277,-0.026855469,-0.000610352
10.2775,-0.023498535,-0.002746582
10.278,-0.016479492,-0.003051758
10.2785,-0.015563965,-0.003051758
10.279,-0.017700195,0.000305176
10.2795,-0.010986328,-0.001220703
10.28,-0.004882813,0.000915527
10.2805,-0.003051758,0.003967285
10.281,0.00213623,0.008239746
10.2815,0.003662109,0.015869141
10.282,0.006103516,0.017700195
10.2825,0.007019043,0.014343262
10.283,0.011901855,0.014343262
10.2835,0.020751953,0.020446777
10.284,0.023498535,0.01953125
10.2845,0.018920898,0.018310547
10.285,0.015869141,0.020446777
10.2855,0.024108887,0.019226074
10.286,0.030212402,0.023498535
10.2865,0.02532959,0.022888184
10.287,0.020141602,0.020446777
10.2875,0.024719238,0.017089844
10.288,0.027160645,0.014038086
10.2885,0.023193359,0.011901855
10.289,0.018005371,0.01159668
10.2895,0.011291504,0.009155273
10.29,0.008850098,-0.00213623
10.2905,0.006103516,-0.010681152
10.291,0,-0.013122559
10.2915,-0.006408691,-0.014953613
10.292,-0.012512207,-0.018005371
10.2925,-0.018005371,-0.022583008
10.293,-0.02166748,-0.023193359
10.2935,-0.027770996,-0.026550293
10.294,-0.029602051,-0.025634766
10.2945,-0.023803711,-0.018615723
10.295,-0.020751953,-0.016784668
10.2955,-0.024719238,-0.01739502
10.296,-0.025024414,-0.015869141
10.2965,-0.019226074,-0.013427734
10.297,-0.019226074,-0.008239746
10.2975,-0.024719238,-0.005187988
10.298,-0.022583008,-0.01159668
10.2985,-0.022277832,-0.007019043
10.299,-0.023498535,-0.00213623
10.2995,-0.016479492,-0.000915527
10.3,-0.008544922,-0.006713867
10.3005,0.000305176,-0.01373291
10.301,0.000915527,-0.018920898
10.3015,0.000305176,-0.020141602
10.302,0.004577637,-0.017089844
10.3025,0.010070801,-0.017089844
10.303,0.014953613,-0.015258789
10.3035,0.024719238,-0.012512207
10.304,0.032958984,-0.007629395
10.3045,0.028991699,-0.002746582
10.305,0.025939941,-0.003356934
10.3055,0.026855469,-0.001525879
10.306,0.029907227,-0.003356934
10.3065,0.021972656,-0.00213623
10.307,0.018615723,-0.000915527
10.3075,0.023498535,0.004272461
10.308,0.02166748,0.007019043
10.3085,0.017700195,0.008850098
10.309,0.015563965,0.010986328
10.3095,0.010986328,0.010681152
10.31,0.003967285,0.007324219
10.3105,-0.003356934,0.006408691
10.311,-0.006713867,0.00793457
10.3115,-0.00793457,0.010375977
10.312,-0.008544922,0.011291504
10.3125,-0.008239746,0.009460449
10.313,-0.014648438,0.007324219
10.3135,-0.01953125,0.003662109
10.314,-0.024414063,0.000305176
10.3145,-0.024108887,0.004272461
10.315,-0.022888184,0.007324219
10.3155,-0.031433105,0.001831055
10.316,-0.039367676,-0.00579834
10.3165,-0.035400391,-0.007324219
10.317,-0.028381348,-0.008850098
10.3175,-0.028076172,-0.010986328
10.318,-0.025634766,-0.01373291
10.3185,-0.024108887,-0.012817383
10.319,-0.019836426,-0.009765625
10.3195,-0.01159668,-0.012512207
10.32,-0.003356934,-0.014343262
10.3205,-0.000610352,-0.016174316
10.321,0.004272461,-0.01739502
10.3215,0.003967285,-0.018920898
10.322,0.009460449,-0.018615723
10.3225,0.013427734,-0.012512207
10.323,0.015258789,-0.005493164
10.3235,0.021362305,-0.00213623
10.324,0.026855469,0.002746582
10.3245,0.024108887,0.004577637
10.325,0.021362305,0.006713867
10.3255,0.029907227,0.012817383
10.326,0.03326416,0.019836426
10.3265,0.028381348,0.018615723
10.327,0.021057129,0.017700195
10.3275,0.021362305,0.015258789
10.328,0.021057129,0.010070801
10.3285,0.019836426,0.006408691
10.329,0.019226074,0.000305176
10.3295,0.013122559,0.004577637
10.33,0.007324219,0.009460449
10.3305,0.001220703,0.01373291
10.331,-0.000915527,0.011291504
10.3315,-0.003051758,0.003356934
10.332,-0.010375977,-0.000305176
10.3325,-0.014343262,0
10.333,-0.017700195,0.001525879
10.3335,-0.025634766,0.000305176
10.334,-0.03112793,-0.004882813
10.3345,-0.029296875,-0.009460449
10.335,-0.025024414,-0.012512207
10.3355,-0.028381348,-0.013427734
10.336,-0.031433105,-0.012512207
10.3365,-0.029907227,-0.010070801
10.337,-0.029907227,-0.008850098
10.3375,-0.030517578,-0.006103516
10.338,-0.024414063,-0.003356934
10.3385,-0.02166748,-0.004577637
10.339,-0.020141602,-0.003051758
10.3395,-0.015869141,-0.006103516
10.34,-0.005493164,-0.009155273
10.3405,-0.001220703,-0.013427734
10.341,0.003051758,-0.017700195
10.3415,0.003356934,-0.021057129
10.342,0.003967285,-0.018920898
10.3425,0.007629395,-0.013427734
10.343,0.014343262,-0.008850098
10.3435,0.025024414,-0.004272461
10.344,0.02746582,0.003967285
10.3445,0.021972656,0.005187988
10.345,0.019836426,0
10.3455,0.028686523,-0.003967285
10.346,0.032653809,-0.00213623
10.3465,0.028076172,-0.00213623
10.347,0.024108887,0.003662109
10.3475,0.022583008,0.007019043
10.348,0.016479492,0.00793457
10.3485,0.015869141,0.009460449
10.349,0.014648438,0.010070801
10.3495,0.008239746,0.002746582
10.35,0.000610352,-0.004577637
10.3505,-0.005187988,-0.007324219
10.351,-0.00793457,-0.008850098
10.3515,-0.01159668,-0.006713867
10.352,-0.014343262,-0.003662109
10.3525,-0.010375977,0.001831055
10.353,-0.009765625,0.006103516
10.3535,-0.020141602,0.005187988
10.354,-0.025939941,0.003662109
10.3545,-0.02532959,0.003967285
10.355,-0.025024414,0.003662109
10.3555,-0.031433105,-0.003356934
10.356,-0.035095215,-0.001525879
10.3565,-0.03326416,-0.002441406
10.357,-0.030822754,-0.004882813
10.3575,-0.032958984,-0.006408691
10.358,-0.027160645,0
10.3585,-0.026855469,-0.000915527
10.359,-0.024108887,-0.010986328
10.3595,-0.018615723,-0.015258789
10.36,-0.012817383,-0.016479492
10.3605,-0.008850098,-0.020141602
10.361,-0.002441406,-0.020141602
10.3615,0.001831055,-0.014038086
10.362,0.007019043,-0.009765625
10.3625,0.012512207,-0.013122559
10.363,0.016174316,-0.012817383
10.3635,0.023193359,-0.003967285
10.364,0.027160645,0.001831055
10.3645,0.01953125,0.012512207
10.365,0.018615723,0.021057129
10.3655,0.029296875,0.024108887
10.366,0.033874512,0.020446777
10.3665,0.027770996,0.017700195
10.367,0.021362305,0.015258789
10.3675,0.022888184,0.010986328
10.368,0.020446777,0.004882813
10.3685,0.020141602,0.00213623
10.369,0.01739502,0.000610352
10.3695,0.008850098,0.000610352
10.37,0.001220703,0.004882813
10.3705,-0.001831055,0.008850098
10.371,-0.004577637,0.015869141
10.3715,-0.008239746,0.019226074
10.372,-0.010070801,0.01739502
10.3725,-0.012207031,0.017089844
10.373,-0.014038086,0.017089844
10.3735,-0.022583008,0.009460449
10.374,-0.027160645,0.005187988
10.3745,-0.024414063,0.002441406
10.375,-0.023803711,0.002746582
10.3755,-0.03112793,0.004272461
10.376,-0.034790039,0.005493164
10.3765,-0.029602051,0.009155273
10.377,-0.026550293,0.016479492
10.3775,-0.027770996,0.016784668
10.378,-0.028381348,0.014648438
10.3785,-0.026245117,0.008544922
10.379,-0.021972656,0.008239746
10.3795,-0.013122559,0.009765625
10.38,-0.006713867,0.011901855
10.3805,-0.003356934,0.003967285
10.381,0.001831055,-0.002441406
10.3815,0.004577637,-0.011291504
10.382,0.009460449,-0.020141602
10.3825,0.01159668,-0.025024414
10.383,0.013427734,-0.026550293
10.3835,0.019226074,-0.021057129
10.384,0.026550293,-0.014648438
10.3845,0.024108887,-0.015563965
10.385,0.021362305,-0.017089844
10.3855,0.028381348,-0.014038086
10.386,0.034179688,-0.01159668
10.3865,0.034179688,-0.012817383
10.387,0.034790039,-0.014343262
10.3875,0.030212402,-0.012817383
10.388,0.020446777,-0.012207031
10.3885,0.016479492,-0.008544922
10.389,0.014648438,-0.003356934
10.3895,0.008850098,-0.002746582
10.39,-0.000915527,-0.004882813
10.3905,-0.002441406,-0.002441406
10.391,-0.001220703,0
10.3915,-0.001831055,0.001220703
10.392,-0.010375977,0
10.3925,-0.014648438,-0.000610352
10.393,-0.016174316,-0.000305176
10.3935,-0.022583008,-0.002746582
10.394,-0.028991699,0
10.3945,-0.028076172,0.002746582
10.395,-0.01953125,-0.001831055
10.3955,-0.023498535,-0.007324219
10.396,-0.028991699,-0.01373291
10.3965,-0.026855469,-0.01739502
10.397,-0.020141602,-0.015869141
10.3975,-0.021362305,-0.014648438
10.398,-0.021057129,-0.007324219
10.3985,-0.018005371,-0.004882813
10.399,-0.016479492,-0.002746582
10.3995,-0.014038086,-0.007629395
10.4,-0.006103516,-0.005493164
10.4005,0,-0.003356934
10.401,0.003051758,-0.005187988
10.4015,0.003967285,-0.004882813
10.402,0.008544922,-0.003051758
10.4025,0.014953613,0.000610352
10.403,0.019836426,0.003356934
10.4035,0.026855469,0.00213623
10.404,0.028686523,0.000610352
10.4045,0.022888184,0
10.405,0.018920898,-0.00579834
10.4055,0.027770996,-0.002746582
10.406,0.03112793,0.003967285
10.4065,0.026550293,0.004577637
10.407,0.024108887,0.00793457
10.4075,0.028991699,0.015258789
10.408,0.02746582,0.021972656
10.4085,0.027770996,0.028991699
10.409,0.026245117,0.033569336
10.4095,0.018920898,0.035095215
10.41,0.010986328,0.033874512
10.4105,0.004577637,0.028686523
10.411,-0.004882813,0.02166748
10.4115,-0.008544922,0.015563965
10.412,-0.012817383,0.015869141
10.4125,-0.009460449,0.019836426
10.413,-0.010681152,0.018615723
10.4135,-0.015869141,0.01739502
10.414,-0.023193359,0.009460449
10.4145,-0.022277832,0.008544922
10.415,-0.024414063,0.014343262
10.4155,-0.032348633,0.015869141
10.416,-0.034484863,0.01159668
10.4165,-0.030517578,0.00793457
10.417,-0.027160645,0.004882813
10.4175,-0.028686523,-0.003051758
10.418,-0.01953125,-0.009460449
10.4185,-0.015869141,-0.014038086
10.419,-0.01159668,-0.015258789
10.4195,-0.006713867,-0.010375977
10.42,-0.00213623,-0.009460449
10.4205,-0.004272461,-0.005187988
10.421,-0.00213623,-0.005187988
10.4215,0.001220703,-0.009765625
10.422,0.009155273,-0.011291504
10.4225,0.012207031,-0.014038086
10.423,0.015563965,-0.016784668
10.4235,0.023498535,-0.016479492
10.424,0.025634766,-0.012207031
10.4245,0.021972656,-0.01373291
10.425,0.02166748,-0.011291504
10.4255,0.02746582,-0.001220703
10.426,0.033874512,0.006103516
10.4265,0.028076172,0.008850098
10.427,0.022277832,0.006408691
10.4275,0.024414063,0.006713867
10.428,0.022583008,0.006713867
10.4285,0.022277832,0.009155273
10.429,0.018005371,0.007019043
10.4295,0.00793457,0.002746582
10.43,0.000305176,0.000610352
10.4305,-0.004577637,-0.001831055
10.431,-0.007324219,-0.006713867
10.4315,-0.010375977,-0.010986328
10.432,-0.014343262,-0.013122559
10.4325,-0.013427734,-0.015258789
10.433,-0.013427734,-0.020141602
10.4335,-0.023193359,-0.019836426
10.434,-0.030822754,-0.017700195
10.4345,-0.027770996,-0.015869141
10.435,-0.023193359,-0.014038086
10.4355,-0.029602051,-0.012207031
10.436,-0.032348633,-0.010986328
10.4365,-0.023498535,-0.008239746
10.437,-0.024414063,-0.007019043
10.4375,-0.027770996,-0.008850098
10.438,-0.020751953,-0.011901855
10.4385,-0.016784668,-0.013122559
10.439,-0.014953613,-0.009765625
10.4395,-0.011291504,-0.004882813
10.44,-0.003662109,-0.000915527
10.4405,0,0.000915527
10.441,0.001220703,0.002746582
10.4415,0.002746582,0.003356934
10.442,0.006103516,0.004882813
10.4425,0.010681152,0.003356934
10.443,0.013122559,0.005187988
10.4435,0.022583008,0.00793457
10.444,0.025024414,0.010375977
10.4445,0.021972656,0.010375977
10.445,0.021057129,0.009765625
10.4455,0.027160645,0.011291504
10.446,0.031433105,0.012512207
10.4465,0.026855469,0.013122559
10.447,0.022583008,0.010986328
10.4475,0.021972656,0.007324219
10.448,0.018920898,0.004882813
10.4485,0.01739502,-0.001525879
10.449,0.018615723,-0.003051758
10.4495,0.014648438,-0.000915527
10.45,0.009155273,-0.000915527
10.4505,0.007324219,-0.003356934
10.451,0.002441406,-0.002746582
10.4515,-0.006408691,-0.001525879
10.452,-0.015563965,-0.001220703
10.4525,-0.014953613,-0.003356934
10.453,-0.01373291,-0.001831055
10.4535,-0.018920898,-0.001831055
10.454,-0.023193359,-0.003356934
10.4545,-0.02166748,-0.003356934
10.455,-0.018615723,-0.001525879
10.4555,-0.026550293,-0.001525879
10.456,-0.030212402,-0.000915527
10.4565,-0.024719238,-0.002746582
10.457,-0.018615723,-0.004882813
10.4575,-0.018920898,-0.002441406
10.458,-0.018310547,0.006408691
10.4585,-0.016784668,0.012512207
10.459,-0.018005371,0.014343262
10.4595,-0.011291504,0.012817383
10.46,-0.004272461,0.014953613
10.4605,-0.006103516,0.013427734
10.461,0.001831055,0.014038086
10.4615,0.009155273,0.013122559
10.462,0.01159668,0.011901855
10.4625,0.014343262,0.016479492
10.463,0.013427734,0.016784668
10.4635,0.01739502,0.013122559
10.464,0.01953125,0.00793457
10.4645,0.016784668,0.005187988
10.465,0.014343262,0.000915527
10.4655,0.025024414,0.004882813
10.466,0.032348633,0.008850098
10.4665,0.02746582,0.010681152
10.467,0.021972656,0.011291504
10.4675,0.026550293,0.010375977
10.468,0.027770996,0.011291504
10.4685,0.023498535,0.014953613
10.469,0.020446777,0.016479492
10.4695,0.012512207,0.01739502
10.47,0.007019043,0.015258789
10.4705,0.002441406,0.01159668
10.471,-0.000915527,0.00579834
10.4715,-0.00213623,-0.000305176
10.472,-0.005187988,-0.001831055
10.4725,-0.005493164,-0.002441406
10.473,-0.00793457,-0.000610352
10.4735,-0.017089844,-0.003356934
10.474,-0.023498535,-0.007629395
10.4745,-0.026245117,-0.010375977
10.475,-0.029296875,-0.012512207
10.4755,-0.034179688,-0.018310547
10.476,-0.034790039,-0.022583008
10.4765,-0.028076172,-0.025939941
10.477,-0.02166748,-0.023803711
10.4775,-0.018005371,-0.021057129
10.478,-0.010070801,-0.020751953
10.4785,-0.012512207,-0.019836426
10.479,-0.014648438,-0.016174316
10.4795,-0.008544922,-0.010681152
10.48,0.001831055,-0.00793457
10.4805,0.004882813,-0.00793457
10.481,0.008239746,-0.007019043
10.4815,0.00579834,-0.003051758
10.482,0.006103516,0.002441406
10.4825,0.010681152,0.005187988
10.483,0.01373291,0.006408691
10.4835,0.019836426,0.00793457
10.484,0.021362305,0.00793457
10.4845,0.020751953,0.008544922
10.485,0.020751953,0.006103516
10.4855,0.033874512,0.008850098
10.486,0.040588379,0.011291504
10.4865,0.030212402,0.010070801
10.487,0.024414063,0.012817383
10.4875,0.026855469,0.01739502
10.488,0.027160645,0.018615723
10.4885,0.024108887,0.01739502
10.489,0.020751953,0.015258789
10.4895,0.015869141,0.013427734
10.49,0.006408691,0.010681152
10.4905,0.001525879,0.010681152
10.491,-0.001525879,0.013427734
10.4915,-0.006408691,0.011291504
10.492,-0.012817383,0.013122559
10.4925,-0.014953613,0.022277832
10.493,-0.015869141,0.022888184
10.4935,-0.020751953,0.021362305
10.494,-0.025634766,0.018310547
10.4945,-0.022888184,0.016174316
10.495,-0.019226074,0.014038086
10.4955,-0.027770996,0.011291504
10.496,-0.033874512,0.009765625
10.4965,-0.030212402,0.008239746
10.497,-0.027160645,0.008850098
10.4975,-0.023193359,0.003967285
10.498,-0.014648438,0.003967285
10.4985,-0.010986328,0.004577637
10.499,-0.010681152,0.003356934
10.4995,-0.006408691,0.006103516
10.5,-0.001220703,0.009155273
10.5005,0.003967285,0.008239746
10.501,0.005493164,0.00793457
10.5015,0.005493164,0.00793457
10.502,0.008544922,0.003662109
10.5025,0.012817383,0.004272461
10.503,0.016784668,0.008239746
10.5035,0.024414063,0.01159668
10.504,0.028076172,0.006408691
10.5045,0.023193359,0.000305176
10.505,0.019836426,-0.006713867
10.5055,0.026245117,-0.006713867
10.506,0.028686523,-0.007324219
10.5065,0.028686523,-0.010986328
10.507,0.025939941,-0.013122559
10.5075,0.029602051,-0.011901855
10.508,0.025024414,-0.007324219
10.5085,0.020446777,-0.00579834
10.509,0.018310547,-0.003051758
10.5095,0.012512207,0
10.51,0.003967285,0.004272461
10.5105,0.000610352,0.003662109
10.511,-0.003051758,0.006713867
10.5115,-0.002441406,0.005493164
10.512,-0.006408691,0.007629395
10.5125,-0.010986328,0.007324219
10.513,-0.014648438,0.00579834
10.5135,-0.022583008,0.004577637
10.514,-0.025024414,0.004882813
10.5145,-0.019836426,0.008850098
10.515,-0.01953125,0.009765625
10.5155,-0.032348633,0.012817383
10.516,-0.037536621,0.010375977
10.5165,-0.030517578,0.005187988
10.517,-0.024108887,0.007324219
10.5175,-0.024719238,0.010070801
10.518,-0.022888184,0.012512207
10.5185,-0.023193359,0.01159668
10.519,-0.024414063,0.007324219
10.5195,-0.016479492,0.003967285
10.52,-0.006713867,0.004577637
10.5205,-0.000610352,0.00793457
10.521,0.006713867,0.009460449
10.5215,0.005493164,0.007019043
10.522,0.008544922,0.004882813
10.5225,0.009460449,0.003051758
10.523,0.012207031,0.003967285
10.5235,0.015869141,0.003967285
10.524,0.01953125,0.005187988
10.5245,0.01739502,0.003051758
10.525,0.018005371,0.001525879
10.5255,0.030212402,0.000915527
10.526,0.035095215,-0.000610352
10.5265,0.030212402,-0.004272461
10.527,0.023803711,-0.003967285
10.5275,0.026855469,-0.003051758
10.528,0.02532959,-0.005493164
10.5285,0.022888184,-0.001831055
10.529,0.022277832,0.003051758
10.5295,0.016784668,-0.001525879
10.53,0.01159668,-0.007629395
10.5305,0.007629395,-0.012512207
10.531,0.005493164,-0.014038086
10.5315,0.000305176,-0.012207031
10.532,-0.010070801,-0.006713867
10.5325,-0.012817383,0.000610352
10.533,-0.017089844,0.00579834
10.5335,-0.022888184,0.009460449
10.534,-0.025634766,0.006103516
10.5345,-0.019226074,0.003051758
10.535,-0.010070801,0.003967285
10.5355,-0.017700195,0.001525879
10.536,-0.023803711,-0.001525879
10.5365,-0.023803711,-0.00213623
10.537,-0.023193359,0.003967285
10.5375,-0.029907227,0.009155273
10.538,-0.026550293,0.010986328
10.5385,-0.023803711,0.010681152
10.539,-0.019836426,0.010375977
10.5395,-0.011901855,0.010375977
10.54,-0.00579834,0.011291504
10.5405,-0.00213623,0.008544922
10.541,0.005187988,0.006103516
10.5415,0.009765625,0.00213623
10.542,0.014038086,0.001525879
10.5425,0.016174316,-0.002746582
10.543,0.022277832,-0.010070801
10.5435,0.028076172,-0.010070801
10.544,0.032348633,-0.007019043
10.5445,0.027160645,-0.007629395
10.545,0.022888184,-0.011291504
10.5455,0.028686523,-0.012817383
10.546,0.033569336,-0.01373291
10.5465,0.028381348,-0.008544922
10.547,0.023803711,-0.005187988
10.5475,0.023193359,-0.003051758
10.548,0.019226074,-0.002441406
10.5485,0.018615723,-0.002746582
10.549,0.016479492,-0.003356934
10.5495,0.01159668,-0.004882813
10.55,0.003662109,-0.005493164
10.5505,-0.001831055,-0.005187988
10.551,-0.005493164,-0.002441406
10.5515,-0.008544922,0.001831055
10.552,-0.012207031,0.004577637
10.5525,-0.013427734,0.00213623
10.553,-0.017700195,0.002441406
10.5535,-0.024719238,0.002441406
10.554,-0.027770996,-0.001525879
10.5545,-0.022888184,-0.003051758
10.555,-0.021972656,-0.007019043
10.5555,-0.031433105,-0.012512207
10.556,-0.03692627,-0.016784668
10.5565,-0.030212402,-0.01739502
10.557,-0.026245117,-0.013427734
10.5575,-0.026855469,-0.005493164
10.558,-0.024108887,-0.001525879
10.5585,-0.021972656,0.000305176
10.559,-0.019226074,0.001525879
10.5595,-0.015258789,0.00213623
10.56,-0.005187988,0.004882813
10.5605,-0.000305176,0.004882813
10.561,0.002746582,0.004272461
10.5615,0.001525879,0.000610352
10.562,0.001525879,0.005187988
10.5625,0.005493164,0.008544922
10.563,0.010681152,0.015258789
10.5635,0.018920898,0.014648438
10.564,0.025024414,0.014953613
10.5645,0.020446777,0.01159668
10.565,0.018310547,0.009155273
10.5655,0.027770996,0.006713867
10.566,0.030822754,0.008239746
10.5665,0.028686523,0.008239746
10.567,0.032348633,0.006408691
10.5675,0.031738281,0.004577637
10.568,0.023193359,0.001831055
10.5685,0.018005371,0.001220703
10.569,0.013427734,-0.002441406
10.5695,0.004577637,-0.005187988
10.57,-0.000305176,-0.00213623
10.5705,-0.002441406,0.001831055
10.571,-0.006103516,0.006103516
10.5715,-0.00793457,0.003356934
10.572,-0.01159668,0.002441406
10.5725,-0.012512207,0.003967285
10.573,-0.013122559,0.003967285
10.5735,-0.019226074,0.003051758
10.574,-0.023193359,0.012512207
10.5745,-0.018615723,0.018310547
10.575,-0.019226074,0.010375977
10.5755,-0.029296875,0.002441406
10.576,-0.03112793,-0.001831055
10.5765,-0.024108887,-0.008544922
10.577,-0.01953125,-0.009765625
10.5775,-0.02166748,-0.008544922
10.578,-0.020141602,-0.010986328
10.5785,-0.019836426,-0.017089844
10.579,-0.01953125,-0.022277832
10.5795,-0.014343262,-0.018920898
10.58,-0.008239746,-0.018615723
10.5805,-0.003662109,-0.019226074
10.581,0,-0.014953613
10.5815,0.001831055,-0.009155273
10.582,0.008544922,-0.007019043
10.5825,0.014953613,-0.005493164
10.583,0.021362305,-0.000915527
10.5835,0.03112793,0.004577637
10.584,0.032653809,0.006713867
10.5845,0.026245117,0.002441406
10.585,0.021057129,-0.000305176
10.5855,0.031738281,-0.003662109
10.586,0.036621094,-0.008544922
10.5865,0.028991699,-0.00579834
10.587,0.022888184,-0.003356934
10.5875,0.02166748,0.000610352
10.588,0.017700195,0.001220703
10.5885,0.014038086,-0.001831055
10.589,0.010986328,-0.003967285
10.5895,0.007324219,-0.005493164
10.59,0.00213623,-0.004577637
10.5905,0.000305176,-0.001525879
10.591,-0.004272461,0.002441406
10.5915,-0.004577637,0.005187988
10.592,-0.006103516,0.003662109
10.5925,-0.01159668,0.000305176
10.593,-0.014648438,0.003356934
10.5935,-0.02166748,0.000610352
10.594,-0.027770996,-0.006713867
10.5945,-0.024719238,-0.007629395
10.595,-0.023498535,-0.009765625
10.5955,-0.030822754,-0.012512207
10.596,-0.033874512,-0.01739502
10.5965,-0.03112793,-0.019226074
10.597,-0.02746582,-0.018005371
10.5975,-0.029907227,-0.020141602
10.598,-0.024414063,-0.02532959
10.5985,-0.021362305,-0.02532959
10.599,-0.018615723,-0.025939941
10.5995,-0.011291504,-0.018615723
10.6,-0.002441406,-0.014343262
10.6005,0,-0.003356934
10.601,0.003662109,0.004882813
10.6015,0.001831055,0.010070801
10.602,0.003967285,0.015258789
10.6025,0.010681152,0.02166748
10.603,0.017700195,0.025024414
10.6035,0.021972656,0.024108887
10.604,0.023193359,0.020446777
10.6045,0.021362305,0.012207031
10.605,0.021362305,0.005493164
10.6055,0.03112793,0.002441406
10.606,0.031433105,0.001525879
10.6065,0.023803711,0.001831055
10.607,0.024108887,0.003356934
10.6075,0.026550293,0.007324219
10.608,0.022583008,0.006713867
10.6085,0.020751953,0.007629395
10.609,0.020751953,0.009460449
10.6095,0.014343262,0.009460449
10.61,0.004272461,0.007019043
10.6105,-0.000305176,0.005187988
10.611,-0.005493164,0.003356934
10.6115,-0.007629395,0.003967285
10.612,-0.014953613,0.002441406
10.6125,-0.015869141,0.003967285
10.613,-0.015563965,0.00579834
10.6135,-0.022583008,0.001525879
10.614,-0.02532959,0.003051758
10.6145,-0.022583008,0.00213623
10.615,-0.024719238,0.004272461
10.6155,-0.031433105,0.002746582
10.616,-0.036010742,0.002746582
10.6165,-0.032958984,0.009460449
10.617,-0.026855469,0.012207031
10.6175,-0.028076172,0.010375977
10.618,-0.02532959,0.012207031
10.6185,-0.022583008,0.014648438
10.619,-0.018615723,0.015563965
10.6195,-0.010070801,0.01953125
10.62,-0.000915527,0.024414063
10.6205,0.001220703,0.021057129
10.621,0.003051758,0.017700195
10.6215,0.006103516,0.00579834
10.622,0.011901855,-0.004577637
10.6225,0.015869141,-0.01373291
10.623,0.018920898,-0.022888184
10.6235,0.023803711,-0.023498535
10.624,0.025634766,-0.017700195
10.6245,0.021362305,-0.018920898
10.625,0.020751953,-0.024108887
10.6255,0.025024414,-0.024719238
10.626,0.028381348,-0.024719238
10.6265,0.025024414,-0.022277832
10.627,0.021057129,-0.021972656
10.6275,0.022583008,-0.015869141
10.628,0.020751953,-0.012817383
10.6285,0.01953125,-0.013427734
10.629,0.018615723,-0.01373291
10.6295,0.01373291,-0.012817383
10.63,0.008239746,-0.007324219
10.6305,-0.000915527,-0.004272461
10.631,-0.010986328,-0.003662109
10.6315,-0.013122559,-0.003662109
10.632,-0.013122559,-0.00213623
10.6325,-0.012817383,0.003662109
10.633,-0.01373291,0.006103516
10.6335,-0.022888184,0.007019043
10.634,-0.027160645,0.012207031
10.6345,-0.025024414,0.015563965
10.635,-0.020751953,0.013427734
10.6355,-0.027160645,0.008544922
10.636,-0.028381348,0.003967285
10.6365,-0.02532959,0.006103516
10.637,-0.025634766,0.004577637
10.6375,-0.032043457,-0.000610352
10.638,-0.033874512,-0.001220703
10.6385,-0.031738281,-0.00793457
10.639,-0.026245117,-0.017089844
10.6395,-0.019836426,-0.014953613
10.64,-0.014648438,-0.00793457
10.6405,-0.007629395,-0.006408691
10.641,0.001220703,-0.006103516
10.6415,0.003051758,-0.006713867
10.642,0.004577637,-0.009765625
10.6425,0.010375977,-0.002746582
10.643,0.014648438,0.006713867
10.6435,0.021057129,0.01373291
10.644,0.023193359,0.014343262
10.6445,0.021972656,0.01159668
10.645,0.01953125,0.008544922
10.6455,0.025634766,0.006408691
10.646,0.030517578,0.00579834
10.6465,0.025024414,0.001831055
10.647,0.019836426,-0.001220703
10.6475,0.021972656,-0.001220703
10.648,0.020446777,-0.002746582
10.6485,0.01953125,0.000305176
10.649,0.018920898,0.000915527
10.6495,0.010681152,-0.000915527
10.65,0.000915527,-0.001525879
10.6505,-0.004882813,-0.003662109
10.651,-0.008850098,-0.001525879
10.6515,-0.009460449,-0.003967285
10.652,-0.015258789,-0.009460449
10.6525,-0.018310547,-0.009765625
10.653,-0.020751953,-0.008544922
10.6535,-0.026855469,-0.010986328
10.654,-0.030517578,-0.008239746
10.6545,-0.023498535,-0.000915527
10.655,-0.019836426,0.009155273
10.6555,-0.029602051,0.010375977
10.656,-0.029602051,0.010986328
10.6565,-0.026245117,0.01159668
10.657,-0.026245117,0.007629395
10.6575,-0.026550293,0.008544922
10.658,-0.022888184,0.011291504
10.6585,-0.021362305,0.003051758
10.659,-0.018615723,-0.002441406
10.6595,-0.011291504,-0.004882813
10.66,-0.002441406,-0.009460449
10.6605,0.000915527,-0.01373291
10.661,0.005493164,-0.014648438
10.6615,0.003967285,-0.01373291
10.662,0.00579834,-0.010681152
10.6625,0.008239746,-0.007019043
10.663,0.012207031,-0.003051758
10.6635,0.020141602,0.004272461
10.664,0.024719238,0.004882813
10.6645,0.020446777,0.003967285
10.665,0.017700195,0.003967285
10.6655,0.028076172,0.005493164
10.666,0.030517578,-0.002746582
10.6665,0.024414063,-0.005187988
10.667,0.02166748,-0.005187988
10.6675,0.022277832,-0.001831055
10.668,0.018310547,-0.001220703
10.6685,0.017700195,0.003662109
10.669,0.018920898,0.004577637
10.6695,0.012207031,0.00579834
10.67,0.003356934,0.009460449
10.6705,-0.00213623,0.010986328
10.671,-0.00579834,0.013427734
10.6715,-0.008239746,0.01739502
10.672,-0.014648438,0.018005371
10.6725,-0.01739502,0.016784668
10.673,-0.021362305,0.014038086
10.6735,-0.026855469,0.004882813
10.674,-0.025634766,0.000305176
10.6745,-0.021057129,0.003967285
10.675,-0.017089844,-0.001525879
10.6755,-0.029907227,-0.005187988
10.676,-0.034179688,-0.012817383
10.6765,-0.026245117,-0.017089844
10.677,-0.020446777,-0.018920898
10.6775,-0.021362305,-0.020446777
10.678,-0.01953125,-0.017700195
10.6785,-0.01953125,-0.010681152
10.679,-0.016784668,-0.007019043
10.6795,-0.012512207,-0.006408691
10.68,-0.006713867,-0.003356934
10.6805,-0.002441406,0.006103516
10.681,0.002746582,0.009155273
10.6815,0.004272461,0.016479492
10.682,0.008544922,0.021362305
10.6825,0.013427734,0.020751953
10.683,0.01739502,0.012512207
10.6835,0.024719238,0.006103516
10.684,0.026550293,-0.000610352
10.6845,0.020751953,-0.011901855
10.685,0.018615723,-0.009460449
10.6855,0.028686523,-0.002746582
10.686,0.030517578,0.002746582
10.6865,0.025024414,0.001525879
10.687,0.021057129,0.003967285
10.6875,0.022888184,0.005187988
10.688,0.023498535,0.006713867
10.6885,0.021362305,0.002746582
10.689,0.017089844,0.000610352
10.6895,0.014648438,-0.001220703
10.69,0.008544922,0.000305176
10.6905,0.002441406,0.003967285
10.691,-0.001220703,0.007019043
10.6915,-0.005493164,0.01159668
10.692,-0.01373291,0.012817383
10.6925,-0.015563965,0.009460449
10.693,-0.012512207,-0.000305176
10.6935,-0.015869141,-0.005187988
10.694,-0.019836426,-0.007019043
10.6945,-0.01953125,-0.007629395
10.695,-0.020141602,-0.007324219
10.6955,-0.029296875,-0.010681152
10.696,-0.036010742,-0.016479492
10.6965,-0.032653809,-0.010375977
10.697,-0.030517578,-0.008239746
10.6975,-0.03112793,-0.007629395
10.698,-0.026245117,-0.008239746
10.6985,-0.020751953,-0.015563965
10.699,-0.015869141,-0.021057129
10.6995,-0.010070801,-0.028076172
10.7,-0.003051758,-0.029907227
10.7005,0.001831055,-0.025024414
10.701,0.007019043,-0.021362305
10.7015,0.008850098,-0.021057129
10.702,0.014343262,-0.019226074
10.7025,0.018310547,-0.011901855
10.703,0.021362305,-0.007019043
10.7035,0.024719238,-0.001220703
10.704,0.027160645,0.001525879
10.7045,0.022583008,0.000915527
10.705,0.019226074,0.002746582
10.7055,0.029907227,0.005493164
10.706,0.035705566,0.012207031
10.7065,0.030212402,0.015563965
10.707,0.024108887,0.018310547
10.7075,0.022888184,0.014953613
10.708,0.01953125,0.012207031
10.7085,0.018920898,0.006103516
10.709,0.015869141,0.004577637
10.7095,0.008544922,0.000610352
10.71,0.001525879,-0.004272461
10.7105,0.000915527,-0.006103516
10.711,-0.000915527,-0.010681152
10.7115,-0.005187988,-0.010375977
10.712,-0.011901855,-0.014343262
10.7125,-0.01373291,-0.018920898
10.713,-0.016784668,-0.022277832
10.7135,-0.02532959,-0.020141602
10.714,-0.027770996,-0.018615723
10.7145,-0.024414063,-0.013122559
10.715,-0.021972656,-0.008544922
10.7155,-0.030517578,-0.009765625
10.716,-0.035400391,-0.012512207
10.7165,-0.03112793,-0.010070801
10.717,-0.028991699,-0.002441406
10.7175,-0.02746582,-0.001525879
10.718,-0.021057129,0.000915527
10.7185,-0.021057129,-0.000305176
10.719,-0.021972656,-0.005187988
10.7195,-0.019226074,-0.003051758
10.72,-0.013427734,-0.00579834
10.7205,-0.010070801,-0.006408691
10.721,-0.00579834,-0.006103516
10.7215,-0.005187988,-0.011291504
10.722,0.00213623,-0.010986328
10.7225,0.006103516,-0.012817383
10.723,0.008850098,-0.011901855
10.7235,0.017089844,-0.011291504
10.724,0.021057129,-0.009460449
10.7245,0.018920898,-0.006408691
10.725,0.01953125,-0.003356934
10.7255,0.026245117,0.000610352
10.726,0.028381348,0.002746582
10.7265,0.02166748,0.004272461
10.727,0.018005371,0.003356934
10.7275,0.018310547,0.001220703
10.728,0.014648438,0.002441406
10.7285,0.012512207,0.003051758
10.729,0.010375977,0.002746582
10.7295,0.000305176,0.011291504
10.73,-0.007019043,0.01739502
10.7305,-0.012207031,0.016174316
10.731,-0.015258789,0.012817383
10.7315,-0.014343262,0.004272461
10.732,-0.013427734,0.000305176
10.7325,-0.014038086,-0.005187988
10.733,-0.018005371,-0.014953613
10.7335,-0.024719238,-0.018005371
10.734,-0.028076172,-0.018310547
10.7345,-0.026550293,-0.01373291
10.735,-0.027770996,-0.014343262
10.7355,-0.0390625,-0.020751953
10.736,-0.042419434,-0.023193359
10.7365,-0.036010742,-0.02166748
10.737,-0.030212402,-0.016174316
10.7375,-0.031433105,-0.013122559
10.738,-0.028991699,-0.012207031
10.7385,-0.029296875,-0.015563965
10.739,-0.027770996,-0.014343262
10.7395,-0.019836426,-0.015563965
10.74,-0.012207031,-0.018310547
10.7405,-0.008544922,-0.017700195
10.741,-0.000610352,-0.016479492
10.7415,-0.000610352,-0.016174316
10.742,0.000305176,-0.012817383
10.7425,0.005493164,-0.012207031
10.743,0.010070801,-0.009155273
10.7435,0.014953613,-0.002746582
10.744,0.015869141,0
10.7445,0.014343262,0.000305176
10.745,0.01373291,-0.001525879
10.7455,0.023498535,0.001525879
10.746,0.028381348,0.004272461
10.7465,0.022888184,0.004882813
10.747,0.019226074,0.005187988
10.7475,0.020751953,0.003051758
10.748,0.020141602,0.000915527
10.7485,0.018005371,0.006713867
10.749,0.018615723,0.01373291
10.7495,0.010681152,0.011901855
10.75,0.004577637,0.006408691
10.7505,-0.00213623,0.004882813
10.751,-0.006408691,0.006103516
10.7515,-0.009765625,0.005493164
10.752,-0.01373291,0.001831055
10.7525,-0.012512207,0
10.753,-0.014343262,-0.00793457
10.7535,-0.023193359,-0.01373291
10.754,-0.02746582,-0.014343262
10.7545,-0.023193359,-0.009155273
10.755,-0.023193359,-0.009460449
10.7555,-0.035400391,-0.014038086
10.756,-0.039367676,-0.013427734
10.7565,-0.031433105,-0.012207031
10.757,-0.026245117,-0.010070801
10.7575,-0.025024414,-0.000610352
10.758,-0.020446777,0.005493164
10.7585,-0.018920898,0.009155273
10.759,-0.019226074,0.016174316
10.7595,-0.018005371,0.020446777
10.76,-0.01159668,0.016784668
10.7605,-0.006103516,0.011901855
10.761,0.003356934,0.012817383
10.7615,0.006713867,0.013427734
10.762,0.009765625,0.011901855
10.7625,0.01159668,0.009765625
10.763,0.014343262,0.009765625
10.7635,0.019836426,0.012512207
10.764,0.024414063,0.013122559
10.7645,0.020446777,0.011291504
10.765,0.01953125,0.014038086
10.7655,0.028991699,0.013427734
10.766,0.031433105,0.006713867
10.7665,0.025024414,0
10.767,0.022888184,-0.001831055
10.7675,0.023193359,-0.003967285
10.768,0.020141602,-0.007324219
10.7685,0.018920898,-0.008544922
10.769,0.014648438,-0.006408691
10.7695,0.009155273,-0.005187988
10.77,0.000915527,-0.007019043
10.7705,-0.003967285,-0.00793457
10.771,-0.005187988,-0.011901855
10.7715,-0.007019043,-0.017089844
10.772,-0.009460449,-0.019226074
10.7725,-0.01159668,-0.022277832
10.773,-0.014648438,-0.021362305
10.7735,-0.02166748,-0.018920898
10.774,-0.027160645,-0.016479492
10.7745,-0.023498535,-0.016479492
10.775,-0.021057129,-0.015869141
10.7755,-0.036315918,-0.014343262
10.776,-0.04119873,-0.014648438
10.7765,-0.031738281,-0.016479492
10.777,-0.028076172,-0.015563965
10.7775,-0.028991699,-0.016784668
10.778,-0.02532959,-0.017089844
10.7785,-0.023193359,-0.019226074
10.779,-0.022888184,-0.018920898
10.7795,-0.015869141,-0.017089844
10.78,-0.009155273,-0.014953613
10.7805,-0.007629395,-0.017089844
10.781,-0.002441406,-0.015258789
10.7815,-0.002746582,-0.009765625
10.782,0.005187988,-0.006713867
10.7825,0.012817383,-0.006408691
10.783,0.015258789,-0.003967285
10.7835,0.021362305,0.002441406
10.784,0.022583008,0.010070801
10.7845,0.021972656,0.017089844
10.785,0.020751953,0.01373291
10.7855,0.029907227,0.00579834
10.786,0.032348633,0.003967285
10.7865,0.026855469,0.003051758
10.787,0.025634766,0.00213623
10.7875,0.027770996,0.003051758
10.788,0.022277832,0.004272461
10.7885,0.018310547,0.006103516
10.789,0.013427734,0.007629395
10.7895,0.007019043,0.009460449
10.79,0.000305176,0.010681152
10.7905,-0.00213623,0.00579834
10.791,-0.002746582,0.003051758
10.7915,-0.004272461,0.000610352
10.792,-0.007629395,-0.000610352
10.7925,-0.01159668,0.002441406
10.793,-0.01373291,0.00213623
10.7935,-0.02166748,-0.003356934
10.794,-0.023498535,-0.006408691
10.7945,-0.02166748,-0.002441406
10.795,-0.021057129,0.004272461
10.7955,-0.024414063,0.001220703
10.796,-0.030517578,-0.002441406
10.7965,-0.027160645,0.000305176
10.797,-0.02532959,-0.001525879
10.7975,-0.026550293,-0.007324219
10.798,-0.023803711,-0.005493164
10.7985,-0.020751953,-0.009155273
10.799,-0.019226074,-0.009460449
10.7995,-0.012817383,-0.003051758
10.8,-0.010070801,-0.001525879
10.8005,-0.006103516,-0.005187988
10.801,0.002441406,-0.003662109
10.8015,0.008239746,-0.001220703
10.802,0.012207031,-0.001220703
10.8025,0.01373291,0.000915527
10.803,0.013427734,0.006103516
10.8035,0.021972656,0.011291504
10.804,0.025939941,0.013122559
10.8045,0.024719238,0.011291504
10.805,0.023193359,0.010375977
10.8055,0.032653809,0.013122559
10.806,0.036010742,0.009460449
10.8065,0.032958984,0.005493164
10.807,0.030822754,0.001220703
10.8075,0.033874512,-0.000610352
10.808,0.028686523,-0.002441406
10.8085,0.025024414,-0.006103516
10.809,0.022583008,-0.00579834
10.8095,0.018310547,-0.010986328
10.81,0.007019043,-0.014648438
10.8105,0.000305176,-0.015258789
10.811,-0.001525879,-0.014953613
10.8115,-0.003967285,-0.010375977
10.812,-0.009460449,-0.007629395
10.8125,-0.01159668,-0.005493164
10.813,-0.015258789,-0.000915527
10.8135,-0.024108887,0.000305176
10.814,-0.026855469,0.000610352
10.8145,-0.024108887,0.004577637
10.815,-0.021362305,0.004272461
10.8155,-0.029296875,-0.000915527
10.816,-0.029907227,-0.010070801
10.8165,-0.025024414,-0.008850098
10.817,-0.021972656,-0.004882813
10.8175,-0.020141602,0.000610352
10.818,-0.018615723,0.004272461
10.8185,-0.016479492,0.005187988
10.819,-0.016479492,0.007019043
10.8195,-0.01159668,0.011901855
10.82,-0.006408691,0.01373291
10.8205,-0.004577637,0.015258789
10.821,0.001831055,0.012817383
10.8215,0.00579834,0.010681152
10.822,0.010070801,0.002746582
10.8225,0.01159668,0.000915527
10.823,0.014953613,-0.000305176
10.8235,0.022583008,-0.005187988
10.824,0.025939941,-0.01159668
10.8245,0.025024414,-0.016784668
10.825,0.026855469,-0.01953125
10.8255,0.032958984,-0.01373291
10.826,0.034179688,-0.009460449
10.8265,0.02746582,-0.003051758
10.827,0.024719238,0.000305176
10.8275,0.025634766,0.002746582
10.828,0.026245117,0.004577637
10.8285,0.027160645,0.002441406
10.829,0.023498535,0.002746582
10.8295,0.01159668,0.003356934
10.83,0.005493164,0.005493164
10.8305,0.001831055,0.005493164
10.831,-0.00579834,0.003356934
10.8315,-0.008850098,0.003967285
10.832,-0.013427734,0.003662109
10.8325,-0.01373291,0.005493164
10.833,-0.014648438,-0.000610352
10.8335,-0.021972656,-0.003356934
10.834,-0.024414063,-0.00579834
10.8345,-0.023193359,-0.003356934
10.835,-0.021972656,-0.006713867
10.8355,-0.029602051,-0.009765625
10.836,-0.037231445,-0.008239746
10.8365,-0.031433105,-0.005493164
10.837,-0.025024414,-0.001525879
10.8375,-0.025024414,-0.001831055
10.838,-0.018615723,0.00213623
10.8385,-0.014953613,0.001525879
10.839,-0.011901855,-0.004272461
10.8395,-0.006713867,-0.007019043
10.84,-0.001220703,-0.009155273
10.8405,0,-0.009155273
10.841,0.001220703,-0.009765625
10.8415,0.000305176,0
10.842,0.003356934,0.006713867
10.8425,0.009765625,0.007324219
10.843,0.015563965,0.004577637
10.8435,0.022277832,0.003662109
10.844,0.028991699,0.002441406
10.8445,0.029296875,-0.001525879
10.845,0.027770996,-0.005493164
10.8455,0.03326416,-0.006103516
10.846,0.032653809,-0.003967285
10.8465,0.028381348,0.004272461
10.847,0.028076172,0.008544922
10.8475,0.027160645,0.009155273
10.848,0.021972656,0.011291504
10.8485,0.024414063,0.010986328
10.849,0.024719238,0.013122559
10.8495,0.018310547,0.014953613
10.85,0.009460449,0.008239746
10.8505,0.002441406,0.003967285
10.851,0.000610352,-0.000915527
10.8515,0.003662109,-0.004577637
10.852,-0.003662109,-0.004272461
10.8525,-0.007019043,-0.004577637
10.853,-0.011291504,-0.00793457
10.8535,-0.021362305,-0.007629395
10.854,-0.028381348,-0.004577637
10.8545,-0.02532959,-0.00579834
10.855,-0.023193359,-0.003356934
10.8555,-0.032043457,-0.000610352
10.856,-0.036010742,-0.003051758
10.8565,-0.028076172,-0.000915527
10.857,-0.022888184,-0.003662109
10.8575,-0.026855469,-0.003967285
10.858,-0.026550293,-0.006408691
10.8585,-0.028686523,-0.008239746
10.859,-0.024108887,-0.013427734
10.8595,-0.011901855,-0.014038086
10.86,0.001525879,-0.014953613
10.8605,0.007019043,-0.015563965
10.861,0.01159668,-0.009460449
10.8615,0.007324219,-0.001220703
10.862,0.007324219,0.00793457
10.8625,0.009765625,0.012817383
10.863,0.014953613,0.013122559
10.8635,0.02166748,0.01159668
10.864,0.023803711,0.010070801
10.8645,0.021057129,0.007019043
10.865,0.019836426,0.010986328
10.8655,0.034179688,0.011901855
10.866,0.040283203,0.012207031
10.8665,0.032653809,0.011291504
10.867,0.028686523,0.010375977
10.8675,0.02746582,0.006713867
10.868,0.022277832,0.005187988
10.8685,0.016479492,-0.00213623
10.869,0.015563965,-0.007629395
10.8695,0.010070801,-0.010070801
10.87,0,-0.009460449
10.8705,-0.003356934,-0.011291504
10.871,-0.005187988,-0.017089844
10.8715,-0.004882813,-0.018920898
10.872,-0.009460449,-0.018615723
10.8725,-0.01373291,-0.014953613
10.873,-0.017700195,-0.01159668
10.8735,-0.022583008,-0.00793457
10.874,-0.023803711,-0.001831055
10.8745,-0.020751953,0.00579834
10.875,-0.022888184,0.00793457
10.8755,-0.028686523,0.004272461
10.876,-0.030212402,0.004577637
10.8765,-0.025634766,0.008850098
10.877,-0.025634766,0.010375977
10.8775,-0.024108887,0.005493164
10.878,-0.02166748,0.003051758
10.8785,-0.024108887,0.001220703
10.879,-0.022277832,0.000915527
10.8795,-0.014038086,-0.001831055
10.88,-0.007324219,-0.001831055
10.8805,-0.001831055,-0.009460449
10.881,0.00579834,-0.012207031
10.8815,0.00579834,-0.009765625
10.882,0.005493164,-0.008239746
10.8825,0.01159668,-0.004882813
10.883,0.016174316,-0.007019043
10.8835,0.020446777,-0.00793457
10.884,0.023498535,-0.007324219
10.8845,0.023193359,-0.004882813
10.885,0.024414063,-0.000610352
10.8855,0.030517578,0.004272461
10.886,0.031738281,0.007324219
10.8865,0.029602051,0.010375977
10.887,0.028076172,0.009765625
10.8875,0.029907227,0.016479492
10.888,0.025634766,0.020751953
10.8885,0.023193359,0.023193359
10.889,0.018615723,0.01953125
10.8895,0.010070801,0.013427734
10.89,0.004272461,0.011901855
10.8905,0.001220703,0.005493164
10.891,-0.001525879,0.002441406
10.8915,-0.003356934,0.001525879
10.892,-0.009460449,0.000305176
10.8925,-0.012207031,0.001831055
10.893,-0.018615723,-0.000305176
10.8935,-0.026245117,-0.007629395
10.894,-0.030822754,-0.012512207
10.8945,-0.025634766,-0.009765625
10.895,-0.023193359,-0.008850098
10.8955,-0.032043457,-0.012817383
10.896,-0.039672852,-0.014648438
10.8965,-0.036621094,-0.010681152
10.897,-0.032958984,-0.010070801
10.8975,-0.031738281,-0.010681152
10.898,-0.028686523,-0.010375977
10.8985,-0.025024414,-0.010070801
10.899,-0.018920898,-0.012207031
10.8995,-0.010070801,-0.013427734
10.9,-0.004882813,-0.013122559
10.9005,-0.001220703,-0.009765625
10.901,0.002441406,-0.003967285
10.9015,0.002746582,0.001831055
10.902,0.005187988,0.002441406
10.9025,0.006713867,-0.000610352
10.903,0.010681152,-0.003051758
10.9035,0.01739502,0.00213623
10.904,0.020751953,0.008544922
10.9045,0.01739502,0.010986328
10.905,0.014038086,0.012817383
10.9055,0.025939941,0.012817383
10.906,0.029296875,0.012817383
10.9065,0.025939941,0.010986328
10.907,0.025634766,0.008544922
10.9075,0.026855469,0.014038086
10.908,0.023803711,0.01373291
10.9085,0.021362305,0.012512207
10.909,0.016174316,0.01159668
10.9095,0.008850098,0.00793457
10.91,-0.001220703,0.003051758
10.9105,-0.007324219,-0.001525879
10.911,-0.008239746,-0.008239746
10.9115,-0.008544922,-0.013427734
10.912,-0.009460449,-0.018310547
10.9125,-0.009155273,-0.021362305
10.913,-0.010986328,-0.026245117
10.9135,-0.018005371,-0.035705566
10.914,-0.023193359,-0.040283203
10.9145,-0.021057129,-0.03692627
10.915,-0.022277832,-0.032958984
10.9155,-0.030822754,-0.03112793
10.916,-0.036315918,-0.022583008
10.9165,-0.036315918,-0.010375977
10.917,-0.037536621,-0.00579834
10.9175,-0.036010742,-0.005187988
10.918,-0.027770996,-0.003356934
10.9185,-0.024414063,-0.001831055
10.919,-0.020141602,0.000610352
10.9195,-0.01159668,0.005187988
10.92,-0.008239746,0.006713867
10.9205,-0.008239746,0.003967285
10.921,-0.001525879,0.004577637
10.9215,0.002441406,0.006103516
10.922,0.006408691,0.007324219
10.9225,0.008239746,0.005187988
10.923,0.011291504,0.004882813
10.9235,0.020446777,0.001220703
10.924,0.022277832,-0.004882813
10.9245,0.018005371,-0.007324219
10.925,0.018615723,-0.004577637
10.9255,0.030822754,-0.003356934
10.926,0.033874512,-0.005187988
10.9265,0.029602051,-0.003356934
10.927,0.027160645,0.002746582
10.9275,0.025024414,0.006408691
10.928,0.020141602,0.004577637
10.9285,0.015563965,0.010681152
10.929,0.012512207,0.012817383
10.9295,0.008544922,0.013427734
10.93,0.005493164,0.018920898
10.9305,0.004272461,0.018615723
10.931,-0.002441406,0.020141602
10.9315,-0.006713867,0.022277832
10.932,-0.010681152,0.022888184
10.9325,-0.012207031,0.024414063
10.933,-0.018005371,0.022888184
10.9335,-0.026855469,0.017089844
10.934,-0.032043457,0.013122559
10.9345,-0.029602051,0.010681152
10.935,-0.026550293,0.002441406
10.9355,-0.033569336,-0.003051758
10.936,-0.037231445,-0.006103516
10.9365,-0.031738281,-0.004577637
10.937,-0.026550293,-0.000305176
10.9375,-0.023498535,-0.000915527
10.938,-0.019226074,-0.001220703
10.9385,-0.01953125,-0.006713867
10.939,-0.024414063,-0.010681152
10.9395,-0.018615723,-0.015258789
10.94,-0.010070801,-0.016174316
10.9405,-0.00793457,-0.014343262
10.941,-0.003051758,-0.014648438
10.9415,0.000610352,-0.016479492
10.942,0.003967285,-0.01953125
10.9425,0.009765625,-0.020141602
10.943,0.016174316,-0.018310547
10.9435,0.024108887,-0.00793457
10.944,0.028076172,0.001831055
10.9445,0.023803711,0.012817383
10.945,0.021057129,0.014038086
10.9455,0.027770996,0.016479492
10.946,0.027770996,0.013427734
10.9465,0.021362305,0.010375977
10.947,0.018005371,0.00793457
10.9475,0.021972656,0.003967285
10.948,0.020141602,-0.000610352
10.9485,0.018615723,-0.004882813
10.949,0.013122559,-0.005493164
10.9495,0.004577637,-0.015563965
10.95,-0.001831055,-0.014953613
10.9505,-0.004272461,-0.015563965
10.951,-0.006408691,-0.015563965
10.9515,-0.004882813,-0.01373291
10.952,-0.008544922,-0.006408691
10.9525,-0.015258789,0.000305176
10.953,-0.018005371,0.002441406
10.9535,-0.025634766,0.002746582
10.954,-0.029907227,0.003356934
10.9545,-0.027160645,0.003051758
10.955,-0.024719238,0.003051758
10.9555,-0.03326416,0.004577637
10.956,-0.03692627,0.003662109
10.9565,-0.030212402,0.001220703
10.957,-0.023498535,-0.003356934
10.9575,-0.026245117,-0.007019043
10.958,-0.022277832,-0.013427734
10.9585,-0.022583008,-0.015258789
10.959,-0.021362305,-0.015563965
10.9595,-0.015869141,-0.015563965
10.96,-0.009765625,-0.018920898
10.9605,-0.003051758,-0.021057129
10.961,0.004272461,-0.019836426
10.9615,0.004882813,-0.018005371
10.962,0.006103516,-0.016784668
10.9625,0.013427734,-0.012207031
10.963,0.018615723,-0.009155273
10.9635,0.02532959,-0.006408691
10.964,0.025634766,-0.007629395
10.9645,0.024108887,-0.010681152
10.965,0.023193359,-0.012207031
10.9655,0.028991699,-0.008850098
10.966,0.03326416,-0.007019043
10.9665,0.028381348,-0.005493164
10.967,0.023803711,-0.002441406
10.9675,0.02532959,0.00579834
10.968,0.020751953,0.007629395
10.9685,0.016174316,0.008544922
10.969,0.014953613,0.007324219
10.9695,0.010681152,0.010070801
10.97,0.006103516,0.009460449
10.9705,0.000305176,0.009155273
10.971,-0.003662109,0.01373291
10.9715,-0.007629395,0.012817383
10.972,-0.010070801,0.01159668
10.9725,-0.01159668,0.012512207
10.973,-0.017089844,0.012207031
10.9735,-0.024719238,0.00793457
10.974,-0.028076172,0.002746582
10.9745,-0.022277832,-0.002441406
10.975,-0.015869141,-0.007324219
10.9755,-0.02532959,-0.002746582
10.976,-0.032043457,-0.000915527
10.9765,-0.03112793,0.000305176
10.977,-0.027770996,0.003662109
10.9775,-0.032043457,-0.001525879
10.978,-0.027160645,-0.006713867
10.9785,-0.025634766,-0.003356934
10.979,-0.02166748,-0.003356934
10.9795,-0.015869141,0.004272461
10.98,-0.010375977,0.009155273
10.9805,-0.006103516,0.00579834
10.981,-0.003662109,0.003051758
10.9815,0,0.000610352
10.982,0.007019043,0.000305176
10.9825,0.012817383,-0.003051758
10.983,0.013427734,0
10.9835,0.01739502,0.00579834
10.984,0.01953125,0.010681152
10.9845,0.018005371,0.012207031
10.985,0.016174316,0.015258789
10.9855,0.027160645,0.015258789
10.986,0.035095215,0.021362305
10.9865,0.035705566,0.015563965
10.987,0.034790039,0.014038086
10.9875,0.029602051,0.015563965
10.988,0.021362305,0.018615723
10.9885,0.015869141,0.018005371
10.989,0.014038086,0.017089844
10.9895,0.010681152,0.01739502
10.99,0.001831055,0.014648438
10.9905,-0.00213623,0.011291504
10.991,-0.00579834,0.001220703
10.9915,-0.00793457,-0.006408691
10.992,-0.011901855,-0.008850098
10.9925,-0.013122559,-0.007019043
10.993,-0.017700195,-0.007629395
10.9935,-0.024719238,-0.008544922
10.994,-0.02746582,-0.010681152
10.9945,-0.024414063,-0.009155273
10.995,-0.024108887,-0.01159668
10.9955,-0.028991699,-0.012512207
10.996,-0.032958984,-0.014648438
10.9965,-0.028381348,-0.018310547
10.997,-0.02532959,-0.020141602
10.9975,-0.022888184,-0.022888184
10.998,-0.018310547,-0.022888184
10.9985,-0.019226074,-0.023803711
10.999,-0.017089844,-0.022888184
10.9995,-0.010070801,-0.021362305
11,-0.004577637,-0.018005371
11.0005,-0.002746582,-0.015563965
11.001,0.000915527,-0.014038086
11.0015,0.000915527,-0.016479492
11.002,0.00579834,-0.016174316
11.0025,0.014038086,-0.015563965
11.003,0.019226074,-0.014038086
11.0035,0.024719238,-0.008544922
11.004,0.025939941,-0.004272461
11.0045,0.021972656,-0.004272461
11.005,0.020446777,-0.001525879
11.0055,0.027770996,0.000305176
11.006,0.029296875,-0.000610352
11.0065,0.02532959,0.000305176
11.007,0.027160645,-0.002441406
11.0075,0.026245117,0.000915527
11.008,0.022583008,0.002746582
11.0085,0.018005371,0.000305176
11.009,0.015258789,0.000610352
11.0095,0.008239746,0.001220703
11.01,0.003356934,-0.003051758
11.0105,-0.002746582,-0.005493164
11.011,-0.006103516,-0.008239746
11.0115,-0.008239746,-0.012207031
11.012,-0.015258789,-0.012512207
11.0125,-0.01739502,-0.01373291
11.013,-0.019226074,-0.01373291
11.0135,-0.023498535,-0.009460449
11.014,-0.026855469,-0.000610352
11.0145,-0.022583008,0.004577637
11.015,-0.022277832,0.009155273
11.0155,-0.032348633,0.009765625
11.016,-0.034484863,0.009765625
11.0165,-0.030822754,0.009460449
11.017,-0.02746582,0.005493164
11.0175,-0.025939941,0.000305176
11.018,-0.021057129,-0.00213623
11.0185,-0.018615723,-0.002441406
11.019,-0.015869141,0.004577637
11.0195,-0.008544922,0.01953125
11.02,-0.002441406,0.021362305
11.0205,0.001831055,0.018005371
11.021,0.003662109,0.015258789
11.0215,0.002746582,0.007019043
11.022,0.006713867,0.000915527
11.0225,0.010681152,-0.004272461
11.023,0.016784668,-0.007019043
11.0235,0.020751953,-0.010986328
11.024,0.021362305,-0.006103516
11.0245,0.017700195,-0.008850098
11.025,0.015563965,-0.00579834
11.0255,0.024414063,0.002746582
11.026,0.028076172,0.011901855
11.0265,0.023803711,0.017700195
11.027,0.02166748,0.021972656
11.0275,0.022277832,0.023803711
11.028,0.018920898,0.017700195
11.0285,0.018615723,0.013427734
11.029,0.016174316,0.009460449
11.0295,0.010070801,0.006408691
11.03,0.007629395,0.005187988
11.0305,0.001831055,0.004577637
11.031,-0.002441406,0.001525879
11.0315,-0.005187988,0
11.032,-0.010070801,-0.004882813
11.0325,-0.009765625,-0.009155273
11.033,-0.015258789,-0.014953613
11.0335,-0.024414063,-0.012817383
11.034,-0.025634766,-0.01159668
11.0345,-0.021057129,-0.010986328
11.035,-0.01739502,-0.009155273
11.0355,-0.027160645,-0.008850098
11.036,-0.030517578,-0.010375977
11.0365,-0.028381348,-0.009155273
11.037,-0.031433105,-0.009155273
11.0375,-0.032043457,-0.009765625
11.038,-0.026855469,-0.014953613
11.0385,-0.02746582,-0.01159668
11.039,-0.026245117,-0.005187988
11.0395,-0.020751953,0.000610352
11.04,-0.009765625,0.006103516
11.0405,-0.008850098,0.011291504
11.041,-0.002746582,0.017089844
11.0415,0.000610352,0.019226074
11.042,0.007629395,0.022583008
11.0425,0.012817383,0.029296875
11.043,0.018310547,0.029907227
11.0435,0.025634766,0.028991699
11.044,0.02532959,0.025634766
11.0445,0.017089844,0.020141602
11.045,0.012512207,0.012817383
11.0455,0.022583008,0.009460449
11.046,0.029602051,0.002746582
11.0465,0.025024414,-0.003356934
11.047,0.023193359,-0.007629395
11.0475,0.026245117,-0.015869141
11.048,0.020141602,-0.025939941
11.0485,0.014648438,-0.03326416
11.049,0.011901855,-0.025939941
11.0495,0.004882813,-0.027160645
11.05,-0.001525879,-0.035705566
11.0505,-0.003967285,-0.040283203
11.051,-0.006408691,-0.035705566
11.0515,-0.00793457,-0.026550293
11.052,-0.012817383,-0.024719238
11.0525,-0.018005371,-0.020751953
11.053,-0.024108887,-0.014953613
11.0535,-0.030517578,-0.009765625
11.054,-0.03112793,-0.00579834
11.0545,-0.02532959,0.000915527
11.055,-0.023803711,0.004882813
11.0555,-0.032653809,0.007324219
11.056,-0.036621094,0.01159668
11.0565,-0.03112793,0.013122559
11.057,-0.025024414,0.00793457
11.0575,-0.026245117,0.004577637
11.058,-0.021972656,0.002746582
11.0585,-0.021972656,-0.003051758
11.059,-0.01739502,-0.007629395
11.0595,-0.009765625,-0.009765625
11.06,-0.00579834,-0.010375977
11.0605,-0.004882813,-0.011901855
11.061,-0.00213623,-0.010681152
11.0615,-0.000610352,-0.006713867
11.062,0.003967285,-0.00213623
11.0625,0.009155273,0.004882813
11.063,0.014038086,0.007324219
11.0635,0.019226074,0.00793457
11.064,0.020446777,0.000610352
11.0645,0.01739502,-0.004272461
11.065,0.01739502,-0.00579834
11.0655,0.025939941,-0.003051758
11.066,0.032043457,-0.001525879
11.0665,0.032653809,-0.000610352
11.067,0.029602051,-0.001220703
11.0675,0.02746582,0
11.068,0.022277832,-0.000305176
11.0685,0.018615723,0
11.069,0.01739502,0.000915527
11.0695,0.008239746,-0.001220703
11.07,0.000305176,0
11.0705,-0.003051758,-0.000610352
11.071,-0.007324219,-0.000915527
11.0715,-0.00793457,0.001220703
11.072,-0.011901855,0.002746582
11.0725,-0.01373291,0.004272461
11.073,-0.017089844,0.008544922
11.0735,-0.025634766,0.007324219
11.074,-0.030822754,0.005493164
11.0745,-0.027770996,0.009765625
11.075,-0.02746582,0.009765625
11.0755,-0.037536621,0.007324219
11.076,-0.040283203,0.004272461
11.0765,-0.033569336,0.003967285
11.077,-0.028381348,0.00579834
11.0775,-0.029296875,0.003662109
11.078,-0.025634766,0.001831055
11.0785,-0.024414063,0.002441406
11.079,-0.022888184,0.007324219
11.0795,-0.015258789,0.006713867
11.08,-0.00793457,0.001831055
11.0805,-0.000610352,-0.002441406
11.081,0.004577637,-0.001525879
11.0815,0.004882813,0.003662109
11.082,0.005187988,0.00579834
11.0825,0.006408691,0.006408691
11.083,0.007629395,0.004577637
11.0835,0.014343262,0.008544922
11.084,0.020446777,0.007019043
11.0845,0.022583008,0.003356934
11.085,0.02532959,-0.000915527
11.0855,0.034179688,0.000305176
11.086,0.033874512,-0.000305176
11.0865,0.02746582,0
11.087,0.023193359,-0.003356934
11.0875,0.022277832,-0.001525879
11.088,0.018005371,-0.000305176
11.0885,0.017700195,0.001525879
11.089,0.014953613,0.001831055
11.0895,0.010375977,0.001525879
11.09,0.007019043,0.002746582
11.0905,0.002441406,0.005187988
11.091,-0.004577637,0.007629395
11.0915,-0.003967285,0.00579834
11.092,-0.007019043,0.001525879
11.0925,-0.010070801,-0.002441406
11.093,-0.016479492,-0.004272461
11.0935,-0.025634766,-0.00213623
11.094,-0.028076172,0.001220703
11.0945,-0.023803711,0.003356934
11.095,-0.020751953,0.007324219
11.0955,-0.028686523,0.007019043
11.096,-0.032653809,0.005187988
11.0965,-0.027770996,0.003662109
11.097,-0.023498535,0.004272461
11.0975,-0.021972656,0.001525879
11.098,-0.017700195,-0.006713867
11.0985,-0.019836426,-0.006408691
11.099,-0.020141602,-0.006408691
11.0995,-0.014343262,-0.00579834
11.1,-0.00579834,-0.010070801
11.1005,-0.002746582,-0.015563965
11.101,0.004272461,-0.010070801
11.1015,0.006713867,-0.004272461
11.102,0.011901855,-0.003356934
11.1025,0.016784668,-0.002746582
11.103,0.01953125,-0.002441406
11.1035,0.025024414,-0.000610352
11.104,0.028381348,-0.000915527
11.1045,0.025939941,-0.003967285
11.105,0.023498535,-0.00579834
11.1055,0.031738281,-0.003967285
11.106,0.030822754,-0.006103516
11.1065,0.027770996,-0.006408691
11.107,0.024414063,-0.004882813
11.1075,0.021057129,-0.000305176
11.108,0.01953125,0.003356934
11.1085,0.020751953,0.004272461
11.109,0.019226074,0.000610352
11.1095,0.015258789,0.003051758
11.11,0.008544922,0.003356934
11.1105,0.002441406,0.003662109
11.111,-0.003051758,0.004882813
11.1115,-0.00793457,0.006713867
11.112,-0.016784668,0.00793457
11.1125,-0.017089844,0.009155273
11.113,-0.020751953,0.009155273
11.1135,-0.023803711,0.005187988
11.114,-0.020141602,0.003662109
11.1145,-0.014953613,-0.001525879
11.115,-0.016479492,-0.004577637
11.1155,-0.030212402,-0.005187988
11.116,-0.037536621,-0.00579834
11.1165,-0.034484863,-0.00793457
11.117,-0.033569336,-0.01159668
11.1175,-0.033874512,-0.009765625
11.118,-0.027770996,-0.007324219
11.1185,-0.025024414,-0.007324219
11.119,-0.025024414,-0.007019043
11.1195,-0.015563965,-0.004272461
11.12,-0.004882813,-0.006713867
11.1205,-0.000610352,-0.009460449
11.121,0.003356934,-0.008850098
11.1215,0.000610352,-0.009155273
11.122,0.002746582,-0.009460449
11.1225,0.010070801,-0.010375977
11.123,0.016784668,-0.011291504
11.1235,0.024719238,-0.015563965
11.124,0.027160645,-0.02166748
11.1245,0.020446777,-0.017089844
11.125,0.018920898,-0.009155273
11.1255,0.028076172,-0.006103516
11.126,0.03326416,0.000915527
11.1265,0.029602051,0.008239746
11.127,0.028381348,0.007019043
11.1275,0.029907227,0.007629395
11.128,0.025939941,0.014648438
11.1285,0.022583008,0.016479492
11.129,0.014953613,0.01373291
11.1295,0.009155273,0.010986328
11.13,0.003662109,0.006713867
11.1305,0.000610352,0.005187988
11.131,-0.003662109,0.005493164
11.1315,-0.007324219,0.007019043
11.132,-0.009765625,0.010375977
11.1325,-0.011291504,0.012207031
11.133,-0.016479492,0.010681152
11.1335,-0.023498535,0.013122559
11.134,-0.028076172,0.02166748
11.1345,-0.024108887,0.026550293
11.135,-0.021057129,0.029602051
11.1355,-0.027160645,0.028076172
11.136,-0.032348633,0.018920898
11.1365,-0.029907227,0.008544922
11.137,-0.025024414,0.012207031
11.1375,-0.023193359,0.019226074
11.138,-0.014953613,0.023498535
11.1385,-0.014953613,0.026855469
11.139,-0.019226074,0.01739502
11.1395,-0.014648438,0.007019043
11.14,-0.010070801,0.005187988
11.1405,-0.00579834,0.004577637
11.141,-0.003662109,0.00579834
11.1415,-0.000610352,0.003356934
11.142,0.005493164,-0.003662109
11.1425,0.010070801,-0.007019043
11.143,0.013427734,-0.006408691
11.1435,0.022277832,-0.009460449
11.144,0.027770996,-0.014038086
11.1445,0.021972656,-0.014953613
11.145,0.022277832,-0.015869141
11.1455,0.029296875,-0.01739502
11.146,0.032653809,-0.018310547
11.1465,0.029602051,-0.018310547
11.147,0.027160645,-0.014648438
11.1475,0.028076172,-0.016784668
11.148,0.021972656,-0.018615723
11.1485,0.01739502,-0.014953613
11.149,0.014648438,-0.008850098
11.1495,0.006408691,-0.00579834
11.15,0.000610352,-0.00579834
11.1505,-0.004272461,-0.001220703
11.151,-0.005493164,0.002441406
11.1515,-0.00793457,0.00579834
11.152,-0.012207031,0.003662109
11.1525,-0.014648438,0.001525879
11.153,-0.020446777,0.000610352
11.1535,-0.029602051,-0.002441406
11.154,-0.031433105,-0.002441406
11.1545,-0.028686523,-0.003662109
11.155,-0.022583008,-0.002441406
11.1555,-0.022888184,-0.004272461
11.156,-0.023803711,-0.003662109
11.1565,-0.022888184,-0.002441406
11.157,-0.02532959,-0.001831055
11.1575,-0.026550293,-0.003051758
11.158,-0.02532959,-0.003356934
11.1585,-0.023803711,-0.001831055
11.159,-0.01739502,-0.003356934
11.1595,-0.010070801,-0.008544922
11.16,-0.005187988,-0.012512207
11.1605,-0.000610352,-0.018615723
11.161,0.002746582,-0.021057129
11.1615,0.002746582,-0.025634766
11.162,0.005493164,-0.024414063
11.1625,0.007019043,-0.021362305
11.163,0.007019043,-0.015258789
11.1635,0.014953613,-0.008850098
11.164,0.021972656,-0.005187988
11.1645,0.017700195,-0.001525879
11.165,0.016784668,0
11.1655,0.026550293,0.002746582
11.166,0.031738281,0.005493164
11.1665,0.030212402,0.005187988
11.167,0.025024414,0.007019043
11.1675,0.024719238,0.01373291
11.168,0.020751953,0.01739502
11.1685,0.022277832,0.018920898
11.169,0.020751953,0.020141602
11.1695,0.010986328,0.021972656
11.17,0.000305176,0.021057129
11.1705,-0.003967285,0.023498535
11.171,-0.009155273,0.028076172
11.1715,-0.009460449,0.025634766
11.172,-0.012207031,0.020446777
11.1725,-0.012817383,0.016174316
11.173,-0.015258789,0.01373291
11.1735,-0.023803711,0.007324219
11.174,-0.027160645,0.001525879
11.1745,-0.024108887,-0.002746582
11.175,-0.026245117,-0.006713867
11.1755,-0.035705566,-0.014343262
11.176,-0.037231445,-0.018615723
11.1765,-0.032043457,-0.01953125
11.177,-0.030212402,-0.017089844
11.1775,-0.028991699,-0.015869141
11.178,-0.027770996,-0.016784668
11.1785,-0.025939941,-0.014648438
11.179,-0.023498535,-0.010681152
11.1795,-0.014038086,-0.007324219
11.18,-0.003356934,-0.000915527
11.1805,-0.001525879,-0.001525879
11.181,0.003662109,-0.005493164
11.1815,0.003967285,-0.006408691
11.182,0.00793457,-0.006713867
11.1825,0.00793457,0.000915527
11.183,0.01159668,0.003356934
11.1835,0.019226074,0.003967285
11.184,0.023803711,-0.000610352
11.1845,0.02532959,0.003051758
11.185,0.025634766,0.006103516
11.1855,0.03112793,0.004272461
11.186,0.03112793,0.001220703
11.1865,0.023803711,-0.000915527
11.187,0.021057129,-0.004882813
11.1875,0.019226074,-0.006713867
11.188,0.016479492,-0.003967285
11.1885,0.015869141,-0.004577637
11.189,0.014648438,-0.004272461
11.1895,0.012817383,-0.004882813
11.19,0.005187988,-0.003356934
11.1905,-0.000305176,-0.002441406
11.191,-0.004882813,0
11.1915,-0.007019043,0
11.192,-0.012207031,-0.001525879
11.1925,-0.016479492,0.000610352
11.193,-0.016479492,0.000610352
11.1935,-0.021057129,-0.000610352
11.194,-0.023498535,-0.007019043
11.1945,-0.021057129,-0.009460449
11.195,-0.021057129,-0.00793457
11.1955,-0.029602051,-0.014648438
11.196,-0.034179688,-0.020446777
11.1965,-0.029602051,-0.014648438
11.197,-0.028076172,-0.00793457
11.1975,-0.02746582,-0.008239746
11.198,-0.021972656,-0.01159668
11.1985,-0.019226074,-0.010070801
11.199,-0.017700195,-0.007324219
11.1995,-0.013427734,-0.004272461
11.2,-0.009460449,-0.003051758
11.2005,-0.003662109,-0.001525879
11.201,0.006713867,0.004272461
11.2015,0.010375977,0.006713867
11.202,0.01373291,0.005187988
11.2025,0.015869141,0.003967285
11.203,0.01739502,0.004882813
11.2035,0.020446777,0.007629395
11.204,0.020751953,0.011291504
11.2045,0.018005371,0.014648438
11.205,0.019836426,0.014038086
11.2055,0.02746582,0.010986328
11.206,0.03112793,0.011291504
11.2065,0.028686523,0.013427734
11.207,0.025024414,0.016784668
11.2075,0.02532959,0.016784668
11.208,0.023498535,0.014953613
11.2085,0.024108887,0.014038086
11.209,0.020446777,0.01739502
11.2095,0.015869141,0.016784668
11.21,0.010986328,0.011291504
11.2105,0.005493164,0.006103516
11.211,-0.001525879,0.001220703
11.2115,-0.003356934,0.001831055
11.212,-0.007019043,-0.002746582
11.2125,-0.010375977,-0.003356934
11.213,-0.017700195,-0.00213623
11.2135,-0.02532959,-0.00793457
11.214,-0.026245117,-0.007324219
11.2145,-0.021057129,-0.002441406
11.215,-0.018005371,0.006103516
11.2155,-0.029602051,0.006103516
11.216,-0.034484863,0.000305176
11.2165,-0.028991699,-0.001525879
11.217,-0.02532959,0.000915527
11.2175,-0.024414063,-0.002441406
11.218,-0.020446777,-0.003051758
11.2185,-0.020751953,-0.004882813
11.219,-0.018310547,-0.003051758
11.2195,-0.010070801,-0.005187988
11.22,-0.003051758,-0.000610352
11.2205,0.000915527,0.00213623
11.221,0.004577637,0.006713867
11.2215,0.003662109,0.00793457
11.222,0.007324219,0.010070801
11.2225,0.011901855,0.009155273
11.223,0.016479492,0.007324219
11.2235,0.01953125,0.009765625
11.224,0.020446777,0.01159668
11.2245,0.018310547,0.009155273
11.225,0.01953125,0.003051758
11.2255,0.026855469,0.000915527
11.226,0.028381348,-0.004272461
11.2265,0.022583008,-0.01159668
11.227,0.025024414,-0.014953613
11.2275,0.027160645,-0.014038086
11.228,0.021972656,-0.014038086
11.2285,0.015563965,-0.016479492
11.229,0.010986328,-0.016784668
11.2295,0.003356934,-0.01739502
11.23,-0.000610352,-0.012512207
11.2305,-0.000915527,-0.007019043
11.231,-0.002746582,-0.005187988
11.2315,-0.007324219,-0.003662109
11.232,-0.009155273,-0.004272461
11.2325,-0.007019043,0.002746582
11.233,-0.013427734,0.006408691
11.2335,-0.021972656,0.002441406
11.234,-0.027160645,-0.003051758
11.2345,-0.020446777,-0.005187988
11.235,-0.020446777,-0.009460449
11.2355,-0.030517578,-0.013427734
11.236,-0.03692627,-0.015258789
11.2365,-0.033874512,-0.015869141
11.237,-0.030212402,-0.014038086
11.2375,-0.03112793,-0.008544922
11.238,-0.02746582,-0.005493164
11.2385,-0.023803711,-0.003967285
11.239,-0.01953125,-0.001831055
11.2395,-0.01159668,0.000610352
11.24,-0.006713867,0.000305176
11.2405,-0.001525879,0.000915527
11.241,0.003662109,0.003356934
11.2415,0.00579834,0.007629395
11.242,0.009155273,0.011291504
11.2425,0.010986328,0.002746582
11.243,0.012207031,0.000305176
11.2435,0.019836426,0.003662109
11.244,0.023193359,0.005493164
11.2445,0.019836426,0.006408691
11.245,0.018005371,0.003662109
11.2455,0.026550293,0.003051758
11.246,0.030212402,0.000610352
11.2465,0.027160645,-0.002746582
11.247,0.024719238,-0.004577637
11.2475,0.02532959,-0.004272461
11.248,0.02166748,-0.003967285
11.2485,0.020751953,-0.003967285
11.249,0.019836426,-0.002746582
11.2495,0.010375977,0.000305176
11.25,0.001220703,0.006408691
11.2505,-0.002441406,0.012512207
11.251,-0.005493164,0.015258789
11.2515,-0.008850098,0.015258789
11.252,-0.014953613,0.015258789
11.2525,-0.018005371,0.016174316
11.253,-0.020141602,0.010375977
11.2535,-0.027770996,0.006103516
11.254,-0.028686523,0.002746582
11.2545,-0.02532959,-0.004577637
11.255,-0.023803711,-0.001525879
11.2555,-0.034179688,0.000610352
11.256,-0.035095215,0.002746582
11.2565,-0.03112793,0.006713867
11.257,-0.028686523,0.004272461
11.2575,-0.029296875,-0.003356934
11.258,-0.027160645,-0.008544922
11.2585,-0.02532959,-0.009460449
11.259,-0.024719238,-0.012817383
11.2595,-0.015258789,-0.012512207
11.26,-0.006408691,-0.009765625
11.2605,-0.003662109,-0.01159668
11.261,0.003051758,-0.012207031
11.2615,0.004577637,-0.011291504
11.262,0.008850098,-0.00793457
11.2625,0.013122559,-0.005187988
11.263,0.014038086,-0.000610352
11.2635,0.018615723,0.007324219
11.264,0.023193359,0.008850098
11.2645,0.022277832,0.004577637
11.265,0.020141602,0.007629395
11.2655,0.028991699,0.011901855
11.266,0.032043457,0.012817383
11.2665,0.027770996,0.005493164
11.267,0.020446777,-0.003967285
11.2675,0.021057129,-0.014038086
11.268,0.020751953,-0.01739502
11.2685,0.020751953,-0.026245117
11.269,0.018615723,-0.029907227
11.2695,0.009765625,-0.024719238
11.27,0.00213623,-0.016479492
11.2705,-0.004577637,-0.008544922
11.271,-0.004882813,-0.005493164
11.2715,-0.004882813,-0.004882813
11.272,-0.008544922,-0.003967285
11.2725,-0.014953613,-0.004577637
11.273,-0.020446777,0.001831055
11.2735,-0.02532959,0.005187988
11.274,-0.02746582,0.002746582
11.2745,-0.022277832,0.000305176
11.275,-0.021362305,-0.001220703
11.2755,-0.030212402,-0.002746582
11.276,-0.036010742,-0.003967285
11.2765,-0.029296875,-0.003662109
11.277,-0.025024414,-0.006103516
11.2775,-0.029602051,-0.008544922
11.278,-0.028076172,-0.008239746
11.2785,-0.026245117,-0.007019043
11.279,-0.024414063,-0.008544922
11.2795,-0.014343262,-0.008544922
11.28,-0.004272461,-0.006713867
11.2805,0.000610352,-0.007019043
11.281,-0.000915527,-0.004882813
11.2815,0.001831055,-0.009460449
11.282,0.010986328,-0.00793457
11.2825,0.012512207,-0.005187988
11.283,0.01739502,-0.003662109
11.2835,0.02532959,-0.001525879
11.284,0.027160645,-0.00213623
11.2845,0.018920898,0.000305176
11.285,0.014953613,0.002441406
11.2855,0.024108887,0.003051758
11.286,0.028686523,0.009155273
11.2865,0.026855469,0.009460449
11.287,0.024108887,0.007324219
11.2875,0.025634766,0.002746582
11.288,0.023498535,-0.001525879
11.2885,0.024108887,-0.00579834
11.289,0.02166748,-0.004882813
11.2895,0.015258789,-0.008850098
11.29,0.00579834,-0.009460449
11.2905,-0.000305176,-0.011291504
11.291,-0.004882813,-0.013427734
11.2915,-0.005493164,-0.013122559
11.292,-0.007629395,-0.01373291
11.2925,-0.007629395,-0.012512207
11.293,-0.009460449,-0.010681152
11.2935,-0.018005371,-0.008850098
11.294,-0.022277832,-0.005187988
11.2945,-0.018615723,0.000915527
11.295,-0.01739502,0.006713867
11.2955,-0.026245117,0.006713867
11.296,-0.028991699,0.00579834
11.2965,-0.026550293,0.007324219
11.297,-0.025024414,0.009155273
11.2975,-0.025024414,0.01159668
11.298,-0.022583008,0.012817383
11.2985,-0.018615723,0.010681152
11.299,-0.014648438,0.008544922
11.2995,-0.006713867,0.003051758
11.3,-0.003967285,-0.001525879
11.3005,-0.003051758,-0.001831055
11.301,0.001831055,0
11.3015,0.004272461,0.003356934
11.302,0.005493164,0.002746582
11.3025,0.00793457,-0.000305176
11.303,0.012817383,-0.001220703
11.3035,0.021362305,0.00213623
11.304,0.024414063,0.002441406
11.3045,0.022888184,0.00213623
11.305,0.022583008,0.006103516
11.3055,0.028686523,0.007324219
11.306,0.031738281,0.004577637
11.3065,0.029296875,-0.001831055
11.307,0.026550293,-0.003967285
11.3075,0.02746582,0.000305176
11.308,0.024414063,0
11.3085,0.022277832,0.00213623
11.309,0.01953125,0.005493164
11.3095,0.013122559,0.00579834
11.31,0.001525879,-0.002746582
11.3105,-0.003051758,-0.004577637
11.311,-0.005493164,-0.004577637
11.3115,-0.007019043,-0.00793457
11.312,-0.012817383,-0.006713867
11.3125,-0.014038086,-0.007019043
11.313,-0.018310547,-0.011291504
11.3135,-0.025634766,-0.015563965
11.314,-0.026245117,-0.013122559
11.3145,-0.019836426,-0.009460449
11.315,-0.015563965,-0.009765625
11.3155,-0.026550293,-0.008850098
11.316,-0.035095215,-0.009765625
11.3165,-0.034484863,-0.007629395
11.317,-0.028381348,-0.005493164
11.3175,-0.026855469,-0.002441406
11.318,-0.024108887,0
11.3185,-0.024719238,0.003356934
11.319,-0.02166748,0.002746582
11.3195,-0.011291504,-0.00213623
11.32,-0.003662109,-0.010375977
11.3205,0.000305176,-0.012512207
11.321,0.001831055,-0.012512207
11.3215,0.00213623,-0.015258789
11.322,0.008544922,-0.019226074
11.3225,0.014343262,-0.019836426
11.323,0.018615723,-0.010681152
11.3235,0.027160645,-0.007019043
11.324,0.029296875,-0.003967285
11.3245,0.025939941,-0.000305176
11.325,0.021972656,0
11.3255,0.029296875,0.002746582
11.326,0.030517578,0.006408691
11.3265,0.026855469,0.013122559
11.327,0.024414063,0.017700195
11.3275,0.024414063,0.012817383
11.328,0.019226074,0.014648438
11.3285,0.018920898,0.015258789
11.329,0.01953125,0.019226074
11.3295,0.012817383,0.022277832
11.33,0.002441406,0.02166748
11.3305,-0.003662109,0.02166748
11.331,-0.005493164,0.01953125
11.3315,-0.008850098,0.015869141
11.332,-0.010986328,0.008239746
11.3325,-0.01159668,0.003662109
11.333,-0.014343262,0.006713867
11.3335,-0.021362305,0.006103516
11.334,-0.021362305,0.004577637
11.3345,-0.01953125,-0.000305176
11.335,-0.020141602,0
11.3355,-0.028076172,-0.005187988
11.336,-0.029296875,-0.011901855
11.3365,-0.030517578,-0.017700195
11.337,-0.028076172,-0.019836426
11.3375,-0.029907227,-0.020141602
11.338,-0.024414063,-0.02166748
11.3385,-0.022583008,-0.012817383
11.339,-0.023803711,-0.006103516
11.3395,-0.014648438,-0.00579834
11.34,-0.009155273,-0.007324219
11.3405,-0.009155273,-0.007019043
11.341,-0.003662109,-0.006408691
11.3415,0.000305176,-0.002441406
11.342,0.00579834,-0.003051758
11.3425,0.010681152,-0.005187988
11.343,0.014953613,-0.002746582
11.3435,0.02166748,0.001220703
11.344,0.023803711,0.001831055
11.3445,0.022277832,-0.002441406
11.345,0.020446777,-0.003967285
11.3455,0.028076172,-0.003662109
11.346,0.031433105,-0.00579834
11.3465,0.02746582,-0.006713867
11.347,0.023498535,-0.005493164
11.3475,0.024108887,-0.006408691
11.348,0.02166748,-0.00793457
11.3485,0.021057129,-0.006408691
11.349,0.021362305,-0.005493164
11.3495,0.015258789,-0.003051758
11.35,0.011901855,0.003356934
11.3505,0.006103516,0.00213623
11.351,-0.002746582,0.003051758
11.3515,-0.005187988,0.010681152
11.352,-0.008850098,0.008239746
11.3525,-0.010070801,0.005187988
11.353,-0.01159668,0.000915527
11.3535,-0.01953125,-0.001525879
11.354,-0.026245117,-0.001220703
11.3545,-0.022888184,-0.003967285
11.355,-0.019836426,-0.006103516
11.3555,-0.03112793,-0.010986328
11.356,-0.033569336,-0.014038086
11.3565,-0.027770996,-0.010986328
11.357,-0.02532959,-0.008850098
11.3575,-0.028381348,-0.007019043
11.358,-0.025939941,-0.008544922
11.3585,-0.024719238,-0.009765625
11.359,-0.01953125,-0.006103516
11.3595,-0.011901855,-0.00793457
11.36,-0.00579834,-0.004577637
11.3605,-0.001220703,-0.001525879
11.361,0.001525879,-0.000610352
11.3615,0.001525879,-0.001831055
11.362,0.006408691,-0.002746582
11.3625,0.013122559,-0.002441406
11.363,0.016784668,-0.001525879
11.3635,0.022583008,0.004577637
11.364,0.026550293,0.008239746
11.3645,0.024108887,0.009460449
11.365,0.024719238,0.008239746
11.3655,0.032348633,0.011901855
11.366,0.033569336,0.012817383
11.3665,0.028686523,0.014648438
11.367,0.024414063,0.018005371
11.3675,0.024414063,0.020446777
11.368,0.019836426,0.020141602
11.3685,0.020751953,0.019226074
11.369,0.018920898,0.01373291
11.3695,0.014648438,0.010070801
11.37,0.008544922,0.007019043
11.3705,0.000305176,0.001831055
11.371,-0.004577637,0.000610352
11.3715,-0.006713867,-0.006103516
11.372,-0.009765625,-0.014038086
11.3725,-0.012207031,-0.013427734
11.373,-0.014343262,-0.014038086
11.3735,-0.018310547,-0.017089844
11.374,-0.023498535,-0.020446777
11.3745,-0.019226074,-0.020751953
11.375,-0.01953125,-0.018920898
11.3755,-0.027770996,-0.019226074
11.376,-0.030212402,-0.017700195
11.3765,-0.025024414,-0.011291504
11.377,-0.023498535,-0.003051758
11.3775,-0.025024414,-0.000610352
11.378,-0.021057129,0.007324219
11.3785,-0.020446777,0.005187988
11.379,-0.017089844,0.002441406
11.3795,-0.009155273,0.001525879
11.38,-0.002746582,0.003967285
11.3805,0.000305176,0.000915527
11.381,0.003662109,-0.000610352
11.3815,0.007629395,0
11.382,0.010681152,-0.002441406
11.3825,0.014343262,-0.003051758
11.383,0.017089844,-0.00793457
11.3835,0.024108887,-0.010070801
11.384,0.028991699,-0.009460449
11.3845,0.025939941,-0.002746582
11.385,0.025939941,0.00579834
11.3855,0.032653809,0.010375977
11.386,0.032958984,0.019836426
11.3865,0.026245117,0.01953125
11.387,0.02532959,0.020141602
11.3875,0.030517578,0.020751953
11.388,0.026245117,0.014343262
11.3885,0.021972656,0.016174316
11.389,0.021057129,0.01373291
11.3895,0.015869141,0.003967285
11.39,0.007019043,-0.006103516
11.3905,0.003356934,-0.010375977
11.391,-0.000610352,-0.007019043
11.3915,-0.003051758,-0.002746582
11.392,-0.008239746,-0.003356934
11.3925,-0.00793457,-0.003967285
11.393,-0.01159668,-0.004577637
11.3935,-0.018615723,-0.01159668
11.394,-0.024414063,-0.01373291
11.3945,-0.01953125,-0.010986328
11.395,-0.018005371,-0.009460449
11.3955,-0.027160645,-0.010070801
11.396,-0.029602051,-0.010986328
11.3965,-0.026245117,-0.009765625
11.397,-0.022277832,-0.011291504
11.3975,-0.024719238,-0.015258789
11.398,-0.021362305,-0.015258789
11.3985,-0.018615723,-0.014648438
11.399,-0.016479492,-0.011291504
11.3995,-0.009155273,-0.006713867
11.4,-0.004577637,-0.004882813
11.4005,0,-0.000915527
11.401,0.006408691,0.002441406
11.4015,0.009460449,-0.000610352
11.402,0.015869141,-0.003662109
11.4025,0.017089844,-0.007324219
11.403,0.017089844,-0.008544922
11.4035,0.024414063,-0.009460449
11.404,0.02746582,-0.010681152
11.4045,0.023498535,-0.01373291
11.405,0.018920898,-0.013427734
11.4055,0.026855469,-0.01159668
11.406,0.031738281,-0.009460449
11.4065,0.030212402,-0.007629395
11.407,0.028381348,-0.005187988
11.4075,0.030212402,0.001831055
11.408,0.028686523,0.006408691
11.4085,0.025024414,0.008239746
11.409,0.020751953,0.009765625
11.4095,0.014343262,0.014648438
11.41,0.007629395,0.016479492
11.4105,0.005493164,0.022888184
11.411,0.002441406,0.02746582
11.4115,0.000305176,0.034179688
11.412,-0.006103516,0.038452148
11.4125,-0.010986328,0.043640137
11.413,-0.017089844,0.043029785
11.4135,-0.023498535,0.032348633
11.414,-0.02532959,0.013122559
11.4145,-0.022277832,0.003051758
11.415,-0.022583008,-0.001220703
11.4155,-0.032958984,-0.00579834
11.416,-0.035705566,-0.014038086
11.4165,-0.028381348,-0.013122559
11.417,-0.023803711,-0.014648438
11.4175,-0.024108887,-0.02166748
11.418,-0.020446777,-0.02166748
11.4185,-0.018920898,-0.022277832
11.419,-0.015563965,-0.01953125
11.4195,-0.009765625,-0.014343262
11.42,-0.004577637,-0.013427734
11.4205,-0.001525879,-0.013122559
11.421,0.003051758,-0.012207031
11.4215,0.003662109,-0.009155273
11.422,0.005187988,-0.006103516
11.4225,0.009460449,-0.003051758
11.423,0.017089844,0.00213623
11.4235,0.022888184,0.001220703
11.424,0.026245117,-0.002746582
11.4245,0.022888184,-0.004882813
11.425,0.019836426,-0.007324219
11.4255,0.025939941,-0.001525879
11.426,0.029296875,-0.000610352
11.4265,0.02746582,0.001831055
11.427,0.029296875,0.001831055
11.4275,0.030517578,0.001831055
11.428,0.026855469,0.001831055
11.4285,0.02532959,0.004577637
11.429,0.021972656,0.003967285
11.4295,0.010375977,0.00213623
11.43,0.000915527,0.002441406
11.4305,-0.000305176,0.00213623
11.431,-0.004272461,0.001525879
11.4315,-0.007019043,0.000915527
11.432,-0.009765625,0.001220703
11.4325,-0.010986328,0.004272461
11.433,-0.014038086,0.008850098
11.4335,-0.021362305,0.010070801
11.434,-0.020141602,0.006713867
11.4345,-0.017700195,0.004272461
11.435,-0.019226074,0.000305176
11.4355,-0.028076172,-0.004272461
11.436,-0.030212402,-0.005493164
11.4365,-0.022888184,-0.008239746
11.437,-0.025634766,-0.010070801
11.4375,-0.030517578,-0.00793457
11.438,-0.029907227,-0.005187988
11.4385,-0.02746582,-0.003356934
11.439,-0.023803711,0.001220703
11.4395,-0.014953613,0.001220703
11.44,-0.006408691,0.002441406
11.4405,0.001525879,0.000915527
11.441,0.00793457,0.001831055
11.4415,0.007019043,0.002746582
11.442,0.008239746,0.009460449
11.4425,0.009765625,0.010681152
11.443,0.01159668,0.01739502
11.4435,0.02166748,0.018920898
11.444,0.025939941,0.016174316
11.4445,0.024108887,0.012207031
11.445,0.022277832,0.00793457
11.4455,0.030517578,0.003356934
11.446,0.036315918,0.000305176
11.4465,0.029907227,-0.006408691
11.447,0.024414063,-0.010986328
11.4475,0.026245117,-0.009765625
11.448,0.025024414,-0.010070801
11.4485,0.025024414,-0.010070801
11.449,0.023498535,-0.009765625
11.4495,0.013427734,-0.004577637
11.45,0.005493164,0.001220703
11.4505,0.000610352,0.000915527
11.451,-0.006408691,0.003967285
11.4515,-0.006408691,0.003967285
11.452,-0.009155273,0.010375977
11.4525,-0.007629395,0.016784668
11.453,-0.01159668,0.02166748
11.4535,-0.020751953,0.020446777
11.454,-0.025634766,0.018615723
11.4545,-0.022277832,0.014343262
11.455,-0.020751953,0.008850098
11.4555,-0.029296875,0.002441406
11.456,-0.03326416,0.000610352
11.4565,-0.028686523,0.002441406
11.457,-0.025634766,0.009765625
11.4575,-0.025634766,0.014648438
11.458,-0.021972656,0.014648438
11.4585,-0.018310547,0.012512207
11.459,-0.018005371,0.003662109
11.4595,-0.010375977,-0.00213623
11.46,-0.004577637,-0.005493164
11.4605,-0.00213623,-0.008544922
11.461,0.00213623,-0.007324219
11.4615,0.000610352,-0.012207031
11.462,0.003051758,-0.010681152
11.4625,0.010986328,-0.009765625
11.463,0.022277832,-0.00579834
11.4635,0.030212402,-0.000610352
11.464,0.03326416,0.005493164
11.4645,0.027160645,0.003051758
11.465,0.01953125,-0.002746582
11.4655,0.024719238,-0.00213623
11.466,0.029602051,-0.003662109
11.4665,0.028381348,-0.007324219
11.467,0.025024414,-0.010375977
11.4675,0.02532959,-0.010070801
11.468,0.021362305,-0.009155273
11.4685,0.01953125,-0.009460449
11.469,0.019226074,-0.007629395
11.4695,0.014648438,-0.007019043
11.47,0.00793457,-0.011901855
11.4705,0.003356934,-0.009155273
11.471,-0.002441406,-0.009765625
11.4715,-0.003967285,-0.009765625
11.472,-0.007019043,-0.010681152
11.4725,-0.011901855,-0.006713867
11.473,-0.019836426,-0.005187988
11.4735,-0.026855469,-0.004882813
11.474,-0.03112793,0.004882813
11.4745,-0.02746582,0.014038086
11.475,-0.023193359,0.016479492
11.4755,-0.031738281,0.014648438
11.476,-0.035705566,0.009460449
11.4765,-0.029907227,0.006408691
11.477,-0.025939941,0.002746582
11.4775,-0.027160645,-0.000915527
11.478,-0.022277832,-0.003662109
11.4785,-0.019226074,-0.008544922
11.479,-0.018615723,-0.012512207
11.4795,-0.010681152,-0.01159668
11.48,-0.00213623,-0.009460449
11.4805,-0.001220703,-0.010986328
11.481,0.001525879,-0.014343262
11.4815,0.003967285,-0.016784668
11.482,0.004577637,-0.013122559
11.4825,0.006408691,-0.008850098
11.483,0.009765625,-0.007019043
11.4835,0.021057129,-0.006713867
11.484,0.023498535,-0.001525879
11.4845,0.02166748,0.003356934
11.485,0.018920898,0.001220703
11.4855,0.028991699,0.003356934
11.486,0.028076172,0.000915527
11.4865,0.024108887,0.001525879
11.487,0.021972656,0.004882813
11.4875,0.023498535,0.008239746
11.488,0.018310547,0.008850098
11.4885,0.014648438,0.013122559
11.489,0.013122559,0.012817383
11.4895,0.009765625,0.012817383
11.49,0.001831055,0.007019043
11.4905,-0.000610352,0.001220703
11.491,-0.004882813,-0.000305176
11.4915,-0.00579834,0.002746582
11.492,-0.008850098,0.001831055
11.4925,-0.010986328,-0.004577637
11.493,-0.015869141,-0.010986328
11.4935,-0.023803711,-0.013427734
11.494,-0.026550293,-0.012207031
11.4945,-0.021972656,-0.01159668
11.495,-0.019836426,-0.00793457
11.4955,-0.03112793,-0.003356934
11.496,-0.035400391,-0.000305176
11.4965,-0.032348633,0.003967285
11.497,-0.030212402,0.007324219
11.4975,-0.032958984,0.01159668
11.498,-0.028381348,0.009155273
11.4985,-0.024719238,0.010070801
11.499,-0.022583008,0.01159668
11.4995,-0.015563965,0.016174316
11.5,-0.007629395,0.022277832
11.5005,-0.002746582,0.025634766
11.501,0.002441406,0.023498535
11.5015,0.004577637,0.020141602
11.502,0.008544922,0.016174316
11.5025,0.012817383,0.009460449
11.503,0.019226074,0.00579834
11.5035,0.024414063,0.003051758
11.504,0.025939941,0.000915527
11.5045,0.022583008,-0.004577637
11.505,0.021362305,-0.008544922
11.5055,0.031738281,-0.004882813
11.506,0.032958984,-0.009155273
11.5065,0.026550293,-0.010070801
11.507,0.020751953,-0.009765625
11.5075,0.022888184,-0.010070801
11.508,0.020141602,-0.012207031
11.5085,0.017089844,-0.00579834
11.509,0.015869141,-0.000305176
11.5095,0.010986328,0.00213623
11.51,0.007019043,0.001220703
11.5105,0.002441406,0.00213623
11.511,-0.003967285,0.003662109
11.5115,-0.007324219,0.004882813
11.512,-0.012207031,0.00793457
11.5125,-0.01159668,0.009155273
11.513,-0.015563965,0.009460449
11.5135,-0.023498535,0.001525879
11.514,-0.025634766,-0.006103516
11.5145,-0.021362305,-0.012817383
11.515,-0.021057129,-0.018615723
11.5155,-0.029296875,-0.022888184
11.516,-0.035095215,-0.018615723
11.5165,-0.027770996,-0.014343262
11.517,-0.025024414,-0.012512207
11.5175,-0.026550293,-0.01159668
11.518,-0.023803711,-0.009765625
11.5185,-0.021972656,-0.008239746
11.519,-0.01953125,0
11.5195,-0.011291504,0.003356934
11.52,-0.003051758,0.003967285
11.5205,0.001220703,0.000610352
11.521,0.004882813,-0.001220703
11.5215,0.004882813,-0.00213623
11.522,0.00793457,0.000610352
11.5225,0.009460449,0.000305176
11.523,0.014038086,0.005493164
11.5235,0.021972656,0.015258789
11.524,0.026550293,0.016784668
11.5245,0.023193359,0.018920898
11.525,0.021972656,0.019226074
11.5255,0.029296875,0.017089844
11.526,0.031433105,0.015258789
11.5265,0.02532959,0.012512207
11.527,0.023803711,0.007324219
11.5275,0.023803711,0.00793457
11.528,0.019836426,0.005187988
11.5285,0.016479492,0.003662109
11.529,0.01373291,0.001831055
11.5295,0.008239746,0.001525879
11.53,0.004882813,-0.000915527
11.5305,0.000610352,-0.001525879
11.531,-0.003662109,-0.005493164
11.5315,-0.007629395,-0.014038086
11.532,-0.011901855,-0.021362305
11.5325,-0.013122559,-0.020751953
11.533,-0.017089844,-0.022277832
11.5335,-0.02166748,-0.024108887
11.534,-0.024108887,-0.023803711
11.5345,-0.021972656,-0.020141602
11.535,-0.020141602,-0.011901855
11.5355,-0.029602051,-0.00579834
11.536,-0.032348633,0.001525879
11.5365,-0.026245117,0.007324219
11.537,-0.026550293,0.007629395
11.5375,-0.029907227,0.003356934
11.538,-0.025634766,0.001220703
11.5385,-0.021362305,0.001525879
11.539,-0.018005371,0.001525879
11.5395,-0.010375977,-0.003662109
11.54,-0.004882813,-0.005187988
11.5405,-0.001220703,-0.00579834
11.541,0.003662109,-0.00793457
11.5415,0.004577637,-0.015563965
11.542,0.006103516,-0.015258789
11.5425,0.012512207,-0.016479492
11.543,0.020141602,-0.014648438
11.5435,0.026855469,-0.006713867
11.544,0.028381348,-0.003051758
11.5445,0.024108887,-0.002746582
11.545,0.018005371,-0.000915527
11.5455,0.023193359,0.007324219
11.546,0.024108887,0.01373291
11.5465,0.018310547,0.015258789
11.547,0.021362305,0.016174316
11.5475,0.027770996,0.014343262
11.548,0.022888184,0.019226074
11.5485,0.022277832,0.019836426
11.549,0.020751953,0.017700195
11.5495,0.014343262,0.015258789
11.55,0.004882813,0.011901855
11.5505,-0.003051758,0.008850098
11.551,-0.007019043,0.006103516
11.5515,-0.004882813,0.003356934
11.552,-0.008850098,0.003967285
11.5525,-0.010070801,0.004577637
11.553,-0.011901855,0.00579834
11.5535,-0.021972656,0.004882813
11.554,-0.027160645,0.008850098
11.5545,-0.023803711,0.011291504
11.555,-0.01953125,0.006713867
11.5555,-0.02746582,-0.000305176
11.556,-0.032348633,-0.001525879
11.5565,-0.028076172,-0.003967285
11.557,-0.025024414,-0.006103516
11.5575,-0.026245117,-0.012512207
11.558,-0.022583008,-0.017700195
11.5585,-0.02166748,-0.019836426
11.559,-0.019836426,-0.020141602
11.5595,-0.010986328,-0.016174316
11.56,-0.003967285,-0.011901855
11.5605,-0.001831055,-0.009460449
11.561,0.000610352,-0.010375977
11.5615,0.001831055,-0.01373291
11.562,0.008544922,-0.01159668
11.5625,0.013122559,-0.004577637
11.563,0.014953613,0.00579834
11.5635,0.021362305,0.016174316
11.564,0.021972656,0.021972656
11.5645,0.020751953,0.030822754
11.565,0.019226074,0.027160645
11.5655,0.028991699,0.021972656
11.566,0.03326416,0.018310547
11.5665,0.027160645,0.015563965
11.567,0.025634766,0.013122559
11.5675,0.027160645,0.007629395
11.568,0.024108887,0.005187988
11.5685,0.022583008,0.002746582
11.569,0.020446777,-0.004272461
11.5695,0.01373291,-0.010070801
11.57,0.006408691,-0.006103516
11.5705,0.003662109,-0.003662109
11.571,0.003967285,-0.004882813
11.5715,0.003967285,-0.008239746
11.572,-0.004272461,-0.003967285
11.5725,-0.008239746,0.002441406
11.573,-0.015258789,0.007629395
11.5735,-0.027160645,0.009765625
11.574,-0.032043457,0.008850098
11.5745,-0.028381348,0.006713867
11.575,-0.024108887,0.005493164
11.5755,-0.03112793,0.005187988
11.576,-0.034484863,0.003356934
11.5765,-0.029296875,0.000305176
11.577,-0.02746582,0.003051758
11.5775,-0.024414063,0.001220703
11.578,-0.019226074,-0.003662109
11.5785,-0.017700195,-0.009460449
11.579,-0.01739502,-0.011901855
11.5795,-0.008544922,-0.014038086
11.58,-0.004272461,-0.01159668
11.5805,0,-0.00793457
11.581,0.001831055,-0.007324219
11.5815,0.000915527,-0.00579834
11.582,0.006713867,-0.003662109
11.5825,0.013122559,0.003051758
11.583,0.01953125,0.006713867
11.5835,0.027160645,0.013122559
11.584,0.029907227,0.014343262
11.5845,0.024108887,0.014953613
11.585,0.022583008,0.011901855
11.5855,0.028381348,0.011901855
11.586,0.031433105,0.010681152
11.5865,0.028076172,0.009155273
11.587,0.026245117,0.00793457
11.5875,0.029602051,0.010681152
11.588,0.025939941,0.009155273
11.5885,0.023803711,0.006103516
11.589,0.023498535,0.003356934
11.5895,0.015563965,0.000915527
11.59,0.007629395,0.001525879
11.5905,-0.000915527,0.001525879
11.591,-0.006103516,0.003967285
11.5915,-0.009765625,0.007019043
11.592,-0.015563965,0.00579834
11.5925,-0.018920898,0.007629395
11.593,-0.018920898,0.003051758
11.5935,-0.025634766,-0.001525879
11.594,-0.030517578,-0.00579834
11.5945,-0.02746582,-0.003967285
11.595,-0.025024414,-0.000305176
11.5955,-0.032348633,-0.001220703
11.596,-0.036010742,-0.000305176
11.5965,-0.03112793,0.000610352
11.597,-0.022277832,-0.004272461
11.5975,-0.022277832,-0.003051758
11.598,-0.021972656,-0.004577637
11.5985,-0.022888184,-0.006408691
11.599,-0.02166748,-0.007629395
11.5995,-0.009765625,-0.006713867
11.6,0.000915527,-0.006103516
11.6005,-0.000305176,-0.006408691
11.601,0.003051758,-0.003356934
11.6015,0.003356934,0.000610352
11.602,0.005187988,0.004577637
11.6025,0.008850098,0.003662109
11.603,0.014343262,0.004272461
11.6035,0.023498535,0.001831055
11.604,0.024414063,0.00213623
11.6045,0.01953125,0.002441406
11.605,0.018615723,0.003356934
11.6055,0.028076172,0.003662109
11.606,0.032043457,0.00793457
11.6065,0.02746582,0.004577637
11.607,0.028076172,0
11.6075,0.02532959,0.001220703
11.608,0.022277832,0.000305176
11.6085,0.020141602,-0.002441406
11.609,0.015258789,-0.002746582
11.6095,0.007629395,-0.006103516
11.61,-0.002441406,-0.014038086
11.6105,-0.006103516,-0.01739502
11.611,-0.009155273,-0.016174316
11.6115,-0.007629395,-0.014038086
11.612,-0.009765625,-0.015869141
11.6125,-0.012207031,-0.013427734
11.613,-0.014648438,-0.011291504
11.6135,-0.028076172,-0.008850098
11.614,-0.03112793,-0.010986328
11.6145,-0.027160645,-0.010681152
11.615,-0.022888184,-0.006103516
11.6155,-0.031738281,-0.003356934
11.616,-0.036315918,-0.004272461
11.6165,-0.03112793,-0.004577637
11.617,-0.028076172,-0.00579834
11.6175,-0.029296875,-0.002746582
11.618,-0.026550293,-0.003051758
11.6185,-0.025634766,-0.007324219
11.619,-0.022888184,-0.012817383
11.6195,-0.01739502,-0.014038086
11.62,-0.011291504,-0.015258789
11.6205,-0.006713867,-0.015258789
11.621,-0.000915527,-0.010986328
11.6215,-0.00213623,-0.006713867
11.622,0.002441406,-0.005187988
11.6225,0.006103516,0
11.623,0.010070801,0.007019043
11.6235,0.018310547,0.013122559
11.624,0.02166748,0.012817383
11.6245,0.018920898,0.008850098
11.625,0.018615723,0.00579834
11.6255,0.030822754,0.005187988
11.626,0.028381348,0.008850098
11.6265,0.017700195,0.010375977
11.627,0.015258789,0.008239746
11.6275,0.018005371,0.002441406
11.628,0.015563965,0.003967285
11.6285,0.014648438,0.003662109
11.629,0.012817383,0.004272461
11.6295,0.006408691,0.007629395
11.63,0.000305176,0.013122559
11.6305,-0.005493164,0.014038086
11.631,-0.009765625,0.008239746
11.6315,-0.011291504,0.002746582
11.632,-0.014038086,0.00579834
11.6325,-0.015258789,0.010070801
11.633,-0.018310547,0.017700195
11.6335,-0.028381348,0.02166748
11.634,-0.031433105,0.022277832
11.6345,-0.029296875,0.01159668
11.635,-0.024719238,0.006713867
11.6355,-0.031433105,0.003356934
11.636,-0.036315918,0.001525879
11.6365,-0.031738281,-0.002746582
11.637,-0.025634766,-0.007324219
11.6375,-0.02746582,-0.01159668
11.638,-0.022277832,-0.014343262
11.6385,-0.025939941,-0.017700195
11.639,-0.022583008,-0.014648438
11.6395,-0.008850098,-0.013122559
11.64,0.00213623,-0.009155273
11.6405,0.00213623,-0.007324219
11.641,0.003051758,-0.003662109
11.6415,0.006103516,-0.00579834
11.642,0.014038086,-0.004272461
11.6425,0.01953125,-0.003051758
11.643,0.01953125,-0.002441406
11.6435,0.025634766,-0.006408691
11.644,0.024414063,-0.01159668
11.6445,0.020141602,-0.009460449
11.645,0.016479492,-0.000915527
11.6455,0.024414063,0.006103516
11.646,0.024719238,0.009155273
11.6465,0.021057129,0.007019043
11.647,0.018920898,0.007324219
11.6475,0.022583008,0.006713867
11.648,0.024108887,0.006408691
11.6485,0.022277832,0.007324219
11.649,0.017700195,0.006713867
11.6495,0.010375977,0.001831055
11.65,0.003356934,-0.009155273
11.6505,0.001220703,-0.016784668
11.651,-0.000610352,-0.021057129
11.6515,-0.000305176,-0.022888184
11.652,-0.007324219,-0.018920898
11.6525,-0.011901855,-0.01739502
11.653,-0.01159668,-0.019836426
11.6535,-0.022277832,-0.018005371
11.654,-0.025634766,-0.016479492
11.6545,-0.022888184,-0.010375977
11.655,-0.023193359,-0.008239746
11.6555,-0.031433105,-0.006713867
11.656,-0.034179688,-0.001525879
11.6565,-0.028991699,0.00579834
11.657,-0.026550293,0.008850098
11.6575,-0.027770996,0.00793457
11.658,-0.026550293,0.006713867
11.6585,-0.027770996,0.005187988
11.659,-0.02532959,0.006408691
11.6595,-0.017700195,0.009155273
11.66,-0.010070801,0.00793457
11.6605,-0.004577637,0.009155273
11.661,0,0.009460449
11.6615,0.001831055,0.014038086
11.662,0.00793457,0.018005371
11.6625,0.012207031,0.021972656
11.663,0.017089844,0.023193359
11.6635,0.025024414,0.02166748
11.664,0.026550293,0.014343262
11.6645,0.02166748,0.006408691
11.665,0.022888184,-0.003967285
11.6655,0.030822754,-0.007324219
11.666,0.035400391,-0.010070801
11.6665,0.030517578,-0.007324219
11.667,0.025634766,-0.004272461
11.6675,0.027160645,-0.001220703
11.668,0.02532959,0.001220703
11.6685,0.023193359,0.010070801
11.669,0.019226074,0.014953613
11.6695,0.010070801,0.02166748
11.67,0.001831055,0.02746582
11.6705,-0.001525879,0.028381348
11.671,-0.007019043,0.026550293
11.6715,-0.009460449,0.021972656
11.672,-0.010070801,0.018615723
11.6725,-0.011901855,0.004882813
11.673,-0.011901855,-0.000610352
11.6735,-0.020141602,-0.006103516
11.674,-0.018310547,-0.010070801
11.6745,-0.016174316,-0.011291504
11.675,-0.014343262,-0.014648438
11.6755,-0.023498535,-0.01953125
11.676,-0.028686523,-0.014953613
11.6765,-0.025634766,-0.013427734
11.677,-0.026245117,-0.013122559
11.6775,-0.030517578,-0.018615723
11.678,-0.028686523,-0.022888184
11.6785,-0.025634766,-0.024414063
11.679,-0.018920898,-0.023498535
11.6795,-0.01159668,-0.01739502
11.68,-0.004577637,-0.009765625
11.6805,0.001220703,-0.006713867
11.681,0.003662109,-0.008239746
11.6815,0.00213623,-0.010375977
11.682,0.005187988,-0.010070801
11.6825,0.010375977,-0.010986328
11.683,0.015563965,-0.015563965
11.6835,0.023803711,-0.012817383
11.684,0.027770996,-0.008850098
11.6845,0.025634766,-0.007629395
11.685,0.023193359,-0.00579834
11.6855,0.028991699,-0.002746582
11.686,0.03112793,-0.001525879
11.6865,0.02532959,-0.000305176
11.687,0.022888184,0.000610352
11.6875,0.025634766,0.003356934
11.688,0.023498535,0.003356934
11.6885,0.023803711,0.001831055
11.689,0.020446777,0.001220703
11.6895,0.012207031,-0.000305176
11.69,0.002441406,-0.000610352
11.6905,-0.002441406,-0.001831055
11.691,-0.003967285,-0.001831055
11.6915,-0.004272461,-0.001525879
11.692,-0.00793457,0.000305176
11.6925,-0.013122559,-0.001831055
11.693,-0.017089844,-0.008850098
11.6935,-0.023498535,-0.01373291
11.694,-0.027160645,-0.01953125
11.6945,-0.021057129,-0.019836426
11.695,-0.01953125,-0.016174316
11.6955,-0.027770996,-0.012207031
11.696,-0.032958984,-0.007019043
11.6965,-0.028076172,-0.008544922
11.697,-0.026550293,-0.008544922
11.6975,-0.02746582,-0.011291504
11.698,-0.023193359,-0.011291504
11.6985,-0.021057129,-0.002746582
11.699,-0.016479492,-0.003051758
11.6995,-0.009460449,-0.003051758
11.7,-0.005493164,-0.003356934
11.7005,-0.003051758,-0.000305176
11.701,0.003356934,0.003356934
11.7015,0.007629395,0.000610352
11.702,0.011291504,-0.006713867
11.7025,0.009765625,-0.009765625
11.703,0.012207031,-0.002441406
11.7035,0.02166748,0.008850098
11.704,0.026550293,0.018310547
11.7045,0.022888184,0.018615723
11.705,0.020141602,0.016479492
11.7055,0.028991699,0.023193359
11.706,0.034179688,0.028991699
11.7065,0.026855469,0.03326416
11.707,0.022583008,0.032043457
11.7075,0.024414063,0.031433105
11.708,0.020141602,0.035705566
11.7085,0.019226074,0.033874512
11.709,0.018310547,0.027770996
11.7095,0.013427734,0.021057129
11.71,0.004882813,0.013122559
11.7105,-0.000305176,0.003051758
11.711,-0.00793457,-0.007629395
11.7115,-0.00793457,-0.007629395
11.712,-0.010681152,-0.009460449
11.7125,-0.01159668,-0.016174316
11.713,-0.010375977,-0.020141602
11.7135,-0.018005371,-0.018920898
11.714,-0.02166748,-0.024719238
11.7145,-0.019836426,-0.02746582
11.715,-0.020751953,-0.026855469
11.7155,-0.030517578,-0.021972656
11.716,-0.033569336,-0.018005371
11.7165,-0.027770996,-0.016174316
11.717,-0.026550293,-0.019836426
11.7175,-0.028076172,-0.014038086
11.718,-0.02166748,-0.010070801
11.7185,-0.022583008,-0.007324219
11.719,-0.021362305,-0.010986328
11.7195,-0.013427734,-0.011901855
11.72,-0.004882813,-0.014648438
11.7205,-0.00213623,-0.014953613
11.721,0.003051758,-0.012207031
11.7215,0.003662109,-0.01159668
11.722,0.006103516,-0.012207031
11.7225,0.010986328,-0.01373291
11.723,0.014648438,-0.014953613
11.7235,0.022277832,-0.014953613
11.724,0.023803711,-0.010070801
11.7245,0.018615723,-0.008239746
11.725,0.017700195,-0.010070801
11.7255,0.026550293,-0.004882813
11.726,0.028686523,0.006103516
11.7265,0.024108887,0.007629395
11.727,0.020751953,0.010375977
11.7275,0.021362305,0.010070801
11.728,0.02166748,0.010986328
11.7285,0.020751953,0.010375977
11.729,0.018310547,0.009155273
11.7295,0.011291504,0.007629395
11.73,0.003356934,0.005187988
11.7305,0,0.000915527
11.731,-0.004882813,0.000610352
11.7315,-0.009765625,-0.001220703
11.732,-0.016784668,-0.005493164
11.7325,-0.018005371,-0.004272461
11.733,-0.01739502,-0.001525879
11.7335,-0.022277832,-0.003051758
11.734,-0.02532959,-0.001220703
11.7345,-0.021972656,-0.005187988
11.735,-0.019226074,-0.006103516
11.7355,-0.03326416,-0.007019043
11.736,-0.037231445,-0.005187988
11.7365,-0.033569336,-0.003051758
11.737,-0.028686523,0.001220703
11.7375,-0.028686523,0.003967285
11.738,-0.030212402,0.008544922
11.7385,-0.032958984,0.014343262
11.739,-0.028381348,0.014648438
11.7395,-0.017089844,0.01159668
11.74,-0.007019043,0.009765625
11.7405,-0.000610352,0.005493164
11.741,0.00213623,0.008544922
11.7415,0.001525879,0.003967285
11.742,0.004272461,-0.000610352
11.7425,0.006408691,-0.005187988
11.743,0.010375977,-0.01159668
11.7435,0.016479492,-0.015258789
11.744,0.01953125,-0.014648438
11.7445,0.018005371,-0.014953613
11.745,0.016479492,-0.014343262
11.7455,0.025024414,-0.009765625
11.746,0.027160645,-0.001220703
11.7465,0.022277832,0.003967285
11.747,0.019226074,0.006103516
11.7475,0.018615723,0.012207031
11.748,0.015563965,0.016174316
11.7485,0.016479492,0.020446777
11.749,0.01373291,0.021362305
11.7495,0.008544922,0.016479492
11.75,0.003051758,0.012817383
11.7505,-0.000915527,0.014648438
11.751,-0.005493164,0.011291504
11.7515,-0.007324219,0.012207031
11.752,-0.010681152,0.012817383
11.7525,-0.013427734,0.012817383
11.753,-0.016174316,0.009460449
11.7535,-0.02532959,0
11.754,-0.027770996,-0.007019043
11.7545,-0.023803711,-0.00793457
11.755,-0.022888184,-0.008239746
11.7555,-0.029296875,-0.012512207
11.756,-0.033569336,-0.014038086
11.7565,-0.029296875,-0.015563965
11.757,-0.025634766,-0.014648438
11.7575,-0.027160645,-0.018615723
11.758,-0.028076172,-0.021972656
11.7585,-0.026550293,-0.02532959
11.759,-0.021972656,-0.02746582
11.7595,-0.01159668,-0.022583008
11.76,-0.004272461,-0.02532959
11.7605,-0.00213623,-0.024414063
11.761,0.004272461,-0.019836426
11.7615,0.004882813,-0.013122559
11.762,0.00579834,-0.007629395
11.7625,0.008544922,-0.00213623
11.763,0.013122559,0.001525879
11.7635,0.020751953,0.007019043
11.764,0.026550293,0.006408691
11.7645,0.020446777,0.006408691
11.765,0.017700195,0.00793457
11.7655,0.023193359,0.007629395
11.766,0.028381348,0.005187988
11.7665,0.030517578,0.003967285
11.767,0.025634766,-0.002441406
11.7675,0.024719238,-0.006713867
11.768,0.016784668,-0.004272461
11.7685,0.016174316,0
11.769,0.012817383,0.001525879
11.7695,0.008544922,0.006103516
11.77,0.000915527,0.004577637
11.7705,-0.004882813,0.003356934
11.771,-0.006713867,0.004577637
11.7715,-0.004272461,0.006408691
11.772,-0.006408691,0.005187988
11.7725,-0.004882813,0.004272461
11.773,-0.011291504,0.001831055
11.7735,-0.024719238,-0.00213623
11.774,-0.029296875,-0.00213623
11.7745,-0.02746582,-0.002441406
11.775,-0.025024414,-0.003662109
11.7755,-0.032348633,-0.000915527
11.776,-0.033874512,0.001831055
11.7765,-0.029907227,0.005493164
11.777,-0.028381348,0.002441406
11.7775,-0.02746582,0.000610352
11.778,-0.022583008,-0.003051758
11.7785,-0.021972656,-0.002746582
11.779,-0.019226074,0.000305176
11.7795,-0.01159668,0.003662109
11.78,-0.004882813,0.003051758
11.7805,-0.00213623,0.001220703
11.781,0.002746582,-0.005187988
11.7815,0.004882813,-0.011901855
11.782,0.00793457,-0.016174316
11.7825,0.011291504,-0.022277832
11.783,0.013427734,-0.02166748
11.7835,0.019836426,-0.019836426
11.784,0.023498535,-0.016174316
11.7845,0.023498535,-0.012817383
11.785,0.02746582,-0.009155273
11.7855,0.038146973,-0.004577637
11.786,0.04119873,-0.004882813
11.7865,0.03112793,-0.004577637
11.787,0.025024414,-0.002746582
11.7875,0.023193359,0.000610352
11.788,0.023193359,0.00579834
11.7885,0.022888184,0.01159668
11.789,0.021362305,0.014038086
11.7895,0.014343262,0.010681152
11.79,0.00793457,0.008239746
11.7905,0.003967285,0.010070801
11.791,0,0.013427734
11.7915,-0.003356934,0.013427734
11.792,-0.006713867,0.010070801
11.7925,-0.009765625,0.011291504
11.793,-0.012817383,0.013122559
11.7935,-0.02166748,0.011291504
11.794,-0.025634766,0.007324219
11.7945,-0.022277832,0.006408691
11.795,-0.021057129,-0.001831055
11.7955,-0.028991699,-0.01159668
11.796,-0.034179688,-0.015258789
11.7965,-0.032043457,-0.019226074
11.797,-0.028686523,-0.023803711
11.7975,-0.030822754,-0.024719238
11.798,-0.025634766,-0.018005371
11.7985,-0.025634766,-0.01159668
11.799,-0.020446777,-0.004272461
11.7995,-0.01159668,-0.001831055
11.8,-0.008544922,0.000305176
11.8005,-0.00579834,-0.001220703
11.801,0.000610352,-0.002441406
11.8015,-0.001525879,0.001220703
11.802,0.004272461,0.008239746
11.8025,0.010070801,0.013427734
11.803,0.015563965,0.014038086
11.8035,0.02532959,0.010070801
11.804,0.026245117,0.00579834
11.8045,0.023498535,0.003662109
11.805,0.021972656,-0.001220703
11.8055,0.031738281,-0.00579834
11.806,0.035095215,-0.012207031
11.8065,0.028991699,-0.009460449
11.807,0.024108887,-0.002746582
11.8075,0.027160645,0.001220703
11.808,0.024108887,-0.000610352
11.8085,0.021362305,0.00213623
11.809,0.017700195,0.00579834
11.8095,0.010681152,0.006408691
11.81,0.005187988,0.00793457
11.8105,0,0.006713867
11.811,-0.002746582,0.002746582
11.8115,-0.002441406,-0.000305176
11.812,-0.004577637,-0.004882813
11.8125,-0.00793457,-0.009460449
11.813,-0.011291504,-0.00793457
11.8135,-0.020446777,-0.004882813
11.814,-0.025024414,-0.001220703
11.8145,-0.022888184,0.004272461
11.815,-0.020751953,0.003356934
11.8155,-0.03112793,-0.003967285
11.816,-0.034790039,-0.009765625
11.8165,-0.031433105,-0.014648438
11.817,-0.027770996,-0.015258789
11.8175,-0.026550293,-0.016479492
11.818,-0.020141602,-0.017700195
11.8185,-0.018310547,-0.015258789
11.819,-0.018005371,-0.015869141
11.8195,-0.010070801,-0.018005371
11.82,-0.003051758,-0.017700195
11.8205,-0.001220703,-0.019836426
11.821,0.002441406,-0.018310547
11.8215,0.004882813,-0.014343262
11.822,0.010070801,-0.008239746
11.8225,0.012817383,-0.005493164
11.823,0.013122559,-0.003051758
11.8235,0.020751953,0.001525879
11.824,0.024108887,0.001525879
11.8245,0.023498535,0.00213623
11.825,0.02166748,0.003967285
11.8255,0.03112793,0.007019043
11.826,0.035400391,0.006713867
11.8265,0.029296875,0.003967285
11.827,0.028686523,0.00579834
11.8275,0.03112793,0.007324219
11.828,0.027770996,0.008544922
11.8285,0.025939941,0.011291504
11.829,0.021362305,0.012817383
11.8295,0.013122559,0.012512207
11.83,0.00213623,0.013427734
11.8305,-0.001831055,0.013427734
11.831,-0.003051758,0.015563965
11.8315,-0.005187988,0.014038086
11.832,-0.008544922,0.013122559
11.8325,-0.010070801,0.010070801
11.833,-0.017089844,0.010375977
11.8335,-0.025634766,0.007019043
11.834,-0.02746582,0.005187988
11.8345,-0.023193359,0.001831055
11.835,-0.021057129,0.001220703
11.8355,-0.030517578,0.00579834
11.836,-0.035400391,0.007324219
11.8365,-0.034179688,0.005187988
11.837,-0.031738281,0.004577637
11.8375,-0.033874512,0.000305176
11.838,-0.026855469,-0.006713867
11.8385,-0.025634766,-0.012817383
11.839,-0.021362305,-0.010375977
11.8395,-0.010681152,-0.009460449
11.84,-0.006408691,-0.013427734
11.8405,-0.002746582,-0.01739502
11.841,0.001525879,-0.015869141
11.8415,0.000915527,-0.00793457
11.842,0.006103516,-0.004882813
11.8425,0.008544922,0.000305176
11.843,0.011291504,0.000610352
11.8435,0.01953125,0.001525879
11.844,0.023498535,0.001525879
11.8445,0.020446777,0.00579834
11.845,0.018310547,0.009765625
11.8455,0.028991699,0.01159668
11.846,0.032958984,0.014038086
11.8465,0.028381348,0.017089844
11.847,0.022888184,0.018310547
11.8475,0.023498535,0.01373291
11.848,0.020141602,0.000915527
11.8485,0.01739502,-0.003967285
11.849,0.016784668,-0.001525879
11.8495,0.010375977,-0.000915527
11.85,0.003051758,0
11.8505,-0.00213623,-0.004272461
11.851,-0.00793457,-0.009155273
11.8515,-0.007019043,-0.007629395
11.852,-0.010375977,-0.009765625
11.8525,-0.009765625,-0.007019043
11.853,-0.013427734,-0.004882813
11.8535,-0.019226074,-0.005493164
11.854,-0.023193359,-0.004272461
11.8545,-0.023803711,0.00213623
11.855,-0.023803711,0.002441406
11.8555,-0.030517578,-0.000610352
11.856,-0.032958984,0.001220703
11.8565,-0.030517578,-0.000610352
11.857,-0.027160645,-0.003967285
11.8575,-0.027160645,-0.008544922
11.858,-0.024719238,-0.009155273
11.8585,-0.024414063,-0.008239746
11.859,-0.020751953,-0.010375977
11.8595,-0.011901855,-0.01373291
11.86,-0.004272461,-0.016479492
11.8605,-0.00213623,-0.02166748
11.861,0.002441406,-0.019836426
11.8615,0.003662109,-0.015869141
11.862,0.007324219,-0.014953613
11.8625,0.012817383,-0.013122559
11.863,0.018310547,-0.013122559
11.8635,0.02532959,-0.010986328
11.864,0.032958984,-0.008544922
11.8645,0.030212402,-0.009155273
11.865,0.023803711,-0.010681152
11.8655,0.03112793,-0.006713867
11.866,0.031738281,-0.003662109
11.8665,0.024414063,-0.002746582
11.867,0.019836426,-0.000915527
11.8675,0.022277832,-0.005493164
11.868,0.019836426,-0.006408691
11.8685,0.018615723,-0.00579834
