,Time,EMG_zyg,EMG_cor
0,0.0005,-0.007629395,0.003662109
1,0.001,-0.008239746,0.003051758
2,0.0015,-0.010986328,0.009155273
3,0.002,-0.001525879,0.01373291
4,0.0025,-0.000305176,0.013122559
5,0.003,-0.003662109,0.011901855
6,0.0035,0.000915527,0.012512207
7,0.004,0.008239746,0.012817383
8,0.0045,0.016174316,0.011291504
9,0.005,0.017089844,0.010986328
10,0.0055,0.023803711,0.009765625
11,0.006,0.03692627,0.010070801
12,0.0065,0.036010742,0.010070801
13,0.007,0.02746582,0.004272461
14,0.0075,0.03112793,0.001525879
15,0.008,0.043945313,0.004882813
16,0.0085,0.042114258,0.004577637
17,0.009,0.035400391,0.006103516
18,0.0095,0.037841797,0.004272461
19,0.01,0.038146973,0.005187988
20,0.0105,0.033874512,0.000915527
21,0.011,0.032653809,-0.000915527
22,0.0115,0.025939941,0.0
23,0.012,0.012512207,0.00213623
24,0.0125,0.003967285,-0.003662109
25,0.013,0.000915527,-0.003662109
26,0.0135,-0.001220703,-0.009155273
27,0.014,-0.000610352,-0.01159668
28,0.0145,-0.003356934,-0.002746582
29,0.015,-0.006713867,0.002746582
30,0.0155,-0.008544922,0.013427734
31,0.016,-0.016784668,0.025634766
32,0.0165,-0.020141602,0.037536621
33,0.017,-0.018310547,0.045166016
34,0.0175,-0.016784668,0.045471191
35,0.018,-0.029602051,0.048828125
36,0.0185,-0.032348633,0.04486084
37,0.019,-0.030517578,0.038757324
38,0.0195,-0.030212402,0.02746582
39,0.02,-0.02746582,0.004577637
40,0.0205,-0.022583008,-0.009460449
41,0.021,-0.022277832,-0.014038086
42,0.0215,-0.018920898,-0.016479492
43,0.022,-0.011291504,-0.015563965
44,0.0225,-0.004577637,-0.015563965
45,0.023,-0.001525879,-0.006408691
46,0.0235,0.006103516,-0.004272461
47,0.024,0.008544922,-0.007324219
48,0.0245,0.015258789,-0.010375977
49,0.025,0.020751953,-0.013122559
50,0.0255,0.022277832,-0.013427734
51,0.026,0.024414063,-0.011291504
52,0.0265,0.025634766,-0.013427734
53,0.027,0.024414063,-0.020751953
54,0.0275,0.027770996,-0.014953613
55,0.028,0.040588379,-0.000915527
56,0.0285,0.039672852,0.004882813
57,0.029,0.032348633,0.007629395
58,0.0295,0.030212402,0.012512207
59,0.03,0.034179688,0.01373291
60,0.0305,0.028076172,0.018615723
61,0.031,0.024108887,0.01953125
62,0.0315,0.022277832,0.015869141
63,0.032,0.019836426,0.019836426
64,0.0325,0.01373291,0.02166748
65,0.033,0.006713867,0.02166748
66,0.0335,-0.001831055,0.01953125
67,0.034,-0.00793457,0.018005371
68,0.0345,-0.014953613,0.010681152
69,0.035,-0.017089844,0.002746582
70,0.0355,-0.022583008,-0.004272461
71,0.036,-0.03112793,-0.003356934
72,0.0365,-0.025939941,0.001525879
73,0.037,-0.015869141,0.005493164
74,0.0375,-0.015563965,0.008239746
75,0.038,-0.02746582,0.00793457
76,0.0385,-0.025634766,0.006103516
77,0.039,-0.021057129,0.003662109
78,0.0395,-0.024108887,-0.001831055
79,0.04,-0.027770996,-0.007629395
80,0.0405,-0.025024414,-0.010070801
81,0.041,-0.025634766,-0.010375977
82,0.0415,-0.019226074,-0.014343262
83,0.042,-0.00579834,-0.019836426
84,0.0425,0.001525879,-0.020751953
85,0.043,0.008239746,-0.012207031
86,0.0435,0.006713867,-0.010986328
87,0.044,0.006408691,-0.017700195
88,0.0445,0.014038086,-0.010070801
89,0.045,0.021362305,-0.000305176
90,0.0455,0.021972656,0.008239746
91,0.046,0.023193359,0.018310547
92,0.0465,0.023193359,0.024108887
93,0.047,0.025634766,0.027160645
94,0.0475,0.029296875,0.03112793
95,0.048,0.042419434,0.028381348
96,0.0485,0.037841797,0.023803711
97,0.049,0.029907227,0.018005371
98,0.0495,0.03112793,0.010986328
99,0.05,0.027160645,0.005187988
100,0.0505,0.021362305,0.004882813
101,0.051,0.021972656,0.005187988
102,0.0515,0.016784668,0.010986328
103,0.052,0.007629395,0.012817383
104,0.0525,0.0,0.011901855
105,0.053,-0.003662109,0.010986328
106,0.0535,-0.008239746,0.010070801
107,0.054,-0.014038086,0.012207031
108,0.0545,-0.018310547,0.008239746
109,0.055,-0.020751953,0.004272461
110,0.0555,-0.025939941,-0.00213623
111,0.056,-0.032043457,-0.008850098
112,0.0565,-0.027770996,-0.004882813
113,0.057,-0.020446777,-0.00793457
114,0.0575,-0.022583008,-0.007324219
115,0.058,-0.033874512,-0.016174316
116,0.0585,-0.034790039,-0.017089844
117,0.059,-0.029296875,-0.018615723
118,0.0595,-0.029602051,-0.022888184
119,0.06,-0.031738281,-0.033874512
120,0.0605,-0.025939941,-0.04119873
121,0.061,-0.024108887,-0.042419434
122,0.0615,-0.017700195,-0.043029785
123,0.062,-0.006103516,-0.042724609
124,0.0625,0.00213623,-0.034790039
125,0.063,0.004577637,-0.02532959
126,0.0635,0.009460449,-0.020751953
127,0.064,0.007019043,-0.007629395
128,0.0645,0.010375977,0.003356934
129,0.065,0.01739502,0.009460449
130,0.0655,0.022277832,0.019836426
131,0.066,0.026855469,0.021972656
132,0.0665,0.026855469,0.020751953
133,0.067,0.023193359,0.017089844
134,0.0675,0.025939941,0.017700195
135,0.068,0.036010742,0.013122559
136,0.0685,0.032958984,0.013427734
137,0.069,0.027770996,0.023193359
138,0.0695,0.026855469,0.018615723
139,0.07,0.032043457,0.015869141
140,0.0705,0.02746582,0.01373291
141,0.071,0.02746582,0.01159668
142,0.0715,0.023498535,0.013427734
143,0.072,0.012207031,0.010986328
144,0.0725,0.002441406,0.007324219
145,0.073,-0.001220703,0.004577637
146,0.0735,-0.00213623,0.001220703
147,0.074,-0.001831055,-0.000610352
148,0.0745,-0.004577637,-0.005187988
149,0.075,-0.010375977,-0.005187988
150,0.0755,-0.018920898,-0.011901855
151,0.076,-0.029296875,-0.014343262
152,0.0765,-0.033569336,-0.014648438
153,0.077,-0.030212402,-0.016174316
154,0.0775,-0.03112793,-0.016174316
155,0.078,-0.039978027,-0.013427734
156,0.0785,-0.039672852,-0.010375977
157,0.079,-0.032653809,-0.009460449
158,0.0795,-0.030822754,-0.004882813
159,0.08,-0.026550293,0.000610352
160,0.0805,-0.022888184,0.009460449
161,0.081,-0.021057129,0.012817383
162,0.0815,-0.015869141,0.015563965
163,0.082,-0.008544922,0.015563965
164,0.0825,-0.004882813,0.016479492
165,0.083,0.002746582,0.017089844
166,0.0835,0.007629395,0.015258789
167,0.084,0.008544922,0.010986328
168,0.0845,0.009460449,0.003967285
169,0.085,0.013427734,-0.002746582
170,0.0855,0.021057129,-0.008239746
171,0.086,0.027160645,-0.008239746
172,0.0865,0.024719238,-0.00793457
173,0.087,0.020141602,-0.008544922
174,0.0875,0.021057129,-0.010375977
175,0.088,0.030212402,-0.00579834
176,0.0885,0.028686523,0.00213623
177,0.089,0.026855469,0.004577637
178,0.0895,0.028076172,0.008850098
179,0.09,0.027160645,0.014343262
180,0.0905,0.022583008,0.018005371
181,0.091,0.023803711,0.018615723
182,0.0915,0.024719238,0.019836426
183,0.092,0.014343262,0.013122559
184,0.0925,0.003051758,0.008850098
185,0.093,-0.00213623,0.002746582
186,0.0935,-0.006408691,-0.008239746
187,0.094,-0.011901855,-0.016174316
188,0.0945,-0.017700195,-0.012207031
189,0.095,-0.018615723,-0.011291504
190,0.0955,-0.016479492,-0.010070801
191,0.096,-0.022888184,-0.01373291
192,0.0965,-0.018920898,-0.015258789
193,0.097,-0.020751953,-0.017700195
194,0.0975,-0.026550293,-0.01159668
195,0.098,-0.034179688,-0.009155273
196,0.0985,-0.033569336,-0.015563965
197,0.099,-0.026245117,-0.014648438
198,0.0995,-0.03112793,-0.010986328
199,0.1,-0.033569336,-0.003967285
200,0.1005,-0.031738281,0.003051758
201,0.101,-0.030822754,0.003967285
202,0.1015,-0.023193359,-0.000610352
203,0.102,-0.010681152,0.002746582
204,0.1025,-0.006103516,0.007019043
205,0.103,-0.000610352,0.008544922
206,0.1035,0.002746582,0.007629395
207,0.104,0.003051758,0.00793457
208,0.1045,0.008850098,0.008239746
209,0.105,0.01373291,0.007629395
210,0.1055,0.020446777,0.005187988
211,0.106,0.028076172,0.004272461
212,0.1065,0.027770996,-0.002746582
213,0.107,0.025024414,-0.00579834
214,0.1075,0.026855469,-0.007324219
215,0.108,0.038452148,-0.012512207
216,0.1085,0.037231445,-0.010070801
217,0.109,0.033569336,0.001220703
218,0.1095,0.032043457,0.000915527
219,0.11,0.03112793,-0.002441406
220,0.1105,0.024414063,-0.003967285
221,0.111,0.018005371,-0.002441406
222,0.1115,0.011901855,0.000305176
223,0.112,0.006408691,0.0
224,0.1125,0.007629395,0.002441406
225,0.113,0.007629395,-0.001220703
226,0.1135,0.0,-0.008544922
227,0.114,-0.007324219,-0.018310547
228,0.1145,-0.015258789,-0.01953125
229,0.115,-0.022888184,-0.008544922
230,0.1155,-0.028076172,-0.013122559
231,0.116,-0.031738281,-0.020751953
232,0.1165,-0.030822754,-0.014648438
233,0.117,-0.027770996,-0.008544922
234,0.1175,-0.025939941,-0.004577637
235,0.118,-0.035095215,0.001525879
236,0.1185,-0.032348633,0.008239746
237,0.119,-0.024414063,0.016784668
238,0.1195,-0.022583008,0.026855469
239,0.12,-0.021972656,0.027770996
240,0.1205,-0.022583008,0.027770996
241,0.121,-0.023498535,0.025634766
242,0.1215,-0.018310547,0.02746582
243,0.122,-0.003967285,0.026855469
244,0.1225,-0.000610352,0.01739502
245,0.123,0.003051758,0.010070801
246,0.1235,0.003051758,0.003051758
247,0.124,0.003356934,-0.00213623
248,0.1245,0.005493164,-0.00579834
249,0.125,0.010375977,-0.012817383
250,0.1255,0.015563965,-0.01739502
251,0.126,0.025939941,-0.023193359
252,0.1265,0.028381348,-0.028991699
253,0.127,0.027160645,-0.032653809
254,0.1275,0.028686523,-0.025939941
255,0.128,0.03692627,-0.020446777
256,0.1285,0.033874512,-0.014343262
257,0.129,0.02746582,-0.00579834
258,0.1295,0.02532959,-0.000915527
259,0.13,0.026245117,0.008544922
260,0.1305,0.022888184,0.016784668
261,0.131,0.019836426,0.015563965
262,0.1315,0.012817383,0.015563965
263,0.132,0.00579834,0.021972656
264,0.1325,-0.001525879,0.026245117
265,0.133,-0.007629395,0.024719238
266,0.1335,-0.010375977,0.023498535
267,0.134,-0.010986328,0.016174316
268,0.1345,-0.013427734,0.014038086
269,0.135,-0.017089844,0.010986328
270,0.1355,-0.020141602,0.004882813
271,0.136,-0.02532959,-0.000915527
272,0.1365,-0.025024414,0.001831055
273,0.137,-0.02532959,0.004272461
274,0.1375,-0.027160645,0.00793457
275,0.138,-0.037231445,0.004577637
276,0.1385,-0.036621094,0.003662109
277,0.139,-0.032958984,0.000610352
278,0.1395,-0.032653809,0.004882813
279,0.14,-0.03112793,0.003967285
280,0.1405,-0.026550293,0.001220703
281,0.141,-0.027160645,0.0
282,0.1415,-0.024719238,-0.001525879
283,0.142,-0.013427734,-0.001525879
284,0.1425,-0.00579834,-0.004882813
285,0.143,0.002746582,-0.007324219
286,0.1435,0.013427734,-0.009155273
287,0.144,0.014648438,-0.010375977
288,0.1445,0.01159668,-0.007019043
289,0.145,0.016174316,-0.004577637
290,0.1455,0.020141602,-0.00213623
291,0.146,0.026550293,-0.001220703
292,0.1465,0.025024414,-0.001525879
293,0.147,0.02532959,-0.004882813
294,0.1475,0.028991699,-0.014343262
295,0.148,0.041809082,-0.015563965
296,0.1485,0.039672852,-0.012512207
297,0.149,0.032348633,-0.012817383
298,0.1495,0.036315918,-0.010986328
299,0.15,0.037536621,-0.012207031
300,0.1505,0.033569336,-0.010681152
301,0.151,0.030517578,-0.010070801
302,0.1515,0.021972656,0.001831055
303,0.152,0.008850098,0.002746582
304,0.1525,-0.000610352,0.000305176
305,0.153,-0.005187988,-0.007324219
306,0.1535,-0.009460449,-0.010681152
307,0.154,-0.009460449,-0.009155273
308,0.1545,-0.009155273,-0.012512207
309,0.155,-0.015258789,-0.014953613
310,0.1555,-0.023803711,-0.012207031
311,0.156,-0.032348633,-0.018005371
312,0.1565,-0.027770996,-0.017089844
313,0.157,-0.018615723,-0.015563965
314,0.1575,-0.017089844,-0.009155273
315,0.158,-0.030517578,-0.007324219
316,0.1585,-0.028686523,-0.007324219
317,0.159,-0.024108887,0.000305176
318,0.1595,-0.030517578,0.010681152
319,0.16,-0.031433105,0.016784668
320,0.1605,-0.025634766,0.009765625
321,0.161,-0.021362305,-0.003356934
322,0.1615,-0.015258789,-0.006103516
323,0.162,-0.005187988,-0.014343262
324,0.1625,0.000305176,-0.016174316
325,0.163,0.004882813,-0.011291504
326,0.1635,0.007324219,-0.01373291
327,0.164,0.00579834,-0.019836426
328,0.1645,0.006713867,-0.012512207
329,0.165,0.012207031,-0.003051758
330,0.1655,0.015869141,0.002441406
331,0.166,0.023803711,0.006408691
332,0.1665,0.024719238,0.004577637
333,0.167,0.023498535,0.005493164
334,0.1675,0.025634766,0.008239746
335,0.168,0.036315918,0.009155273
336,0.1685,0.03692627,0.009155273
337,0.169,0.030517578,0.008544922
338,0.1695,0.026245117,0.010986328
339,0.17,0.024108887,0.015563965
340,0.1705,0.019226074,0.01159668
341,0.171,0.01953125,0.006103516
342,0.1715,0.018310547,0.001831055
343,0.172,0.012817383,-0.002441406
344,0.1725,0.007019043,-0.006103516
345,0.173,-0.000915527,-0.007019043
346,0.1735,-0.00579834,-0.006103516
347,0.174,-0.00793457,-0.012512207
348,0.1745,-0.013427734,-0.016174316
349,0.175,-0.014648438,-0.004272461
350,0.1755,-0.018920898,-0.000915527
351,0.176,-0.026550293,-0.006103516
352,0.1765,-0.022277832,-0.003356934
353,0.177,-0.017700195,0.005493164
354,0.1775,-0.021362305,0.010986328
355,0.178,-0.034484863,0.006713867
356,0.1785,-0.03692627,0.012512207
357,0.179,-0.033569336,0.016174316
358,0.1795,-0.029907227,0.014038086
359,0.18,-0.024719238,0.010070801
360,0.1805,-0.018310547,0.012512207
361,0.181,-0.018310547,0.015869141
362,0.1815,-0.015563965,0.022888184
363,0.182,-0.004577637,0.028991699
364,0.1825,0.001525879,0.026550293
365,0.183,0.006408691,0.027770996
366,0.1835,0.010070801,0.014343262
367,0.184,0.01373291,0.004882813
368,0.1845,0.014648438,0.002441406
369,0.185,0.015258789,-0.009765625
370,0.1855,0.020446777,-0.016784668
371,0.186,0.02746582,-0.025634766
372,0.1865,0.026550293,-0.019226074
373,0.187,0.024719238,-0.014038086
374,0.1875,0.027160645,-0.010681152
375,0.188,0.038452148,-0.000610352
376,0.1885,0.039367676,0.001525879
377,0.189,0.033569336,0.003967285
378,0.1895,0.03112793,-0.004882813
379,0.19,0.029907227,-0.009765625
380,0.1905,0.026550293,-0.00579834
381,0.191,0.029296875,-0.005187988
382,0.1915,0.024719238,-0.00579834
383,0.192,0.015563965,-0.009460449
384,0.1925,0.009765625,-0.009460449
385,0.193,0.007019043,-0.003356934
386,0.1935,0.004272461,0.000915527
387,0.194,0.003662109,0.003662109
388,0.1945,-0.003051758,0.003051758
389,0.195,-0.008544922,0.003051758
390,0.1955,-0.014648438,0.004882813
391,0.196,-0.024719238,0.004882813
392,0.1965,-0.021362305,0.004577637
393,0.197,-0.018615723,0.013122559
394,0.1975,-0.024108887,0.014038086
395,0.198,-0.034484863,0.012817383
396,0.1985,-0.029602051,0.008544922
397,0.199,-0.022888184,0.00793457
398,0.1995,-0.02532959,0.007324219
399,0.2,-0.022583008,0.004272461
400,0.2005,-0.017089844,0.002746582
401,0.201,-0.01953125,0.003662109
402,0.2015,-0.01373291,0.007019043
403,0.202,-0.006103516,0.009460449
404,0.2025,0.000305176,0.00793457
405,0.203,0.003356934,0.001525879
406,0.2035,0.006713867,-0.004272461
407,0.204,0.012817383,-0.008544922
408,0.2045,0.018920898,-0.008239746
409,0.205,0.02746582,-0.006713867
410,0.2055,0.029296875,-0.00213623
411,0.206,0.026855469,0.001831055
412,0.2065,0.025024414,0.005187988
413,0.207,0.025634766,0.004882813
414,0.2075,0.032958984,0.003051758
415,0.208,0.042724609,0.003662109
416,0.2085,0.035400391,0.006103516
417,0.209,0.028686523,0.010070801
418,0.2095,0.029907227,0.010986328
419,0.21,0.030517578,0.01373291
420,0.2105,0.023803711,0.015563965
421,0.211,0.023803711,0.022277832
422,0.2115,0.020141602,0.016784668
423,0.212,0.012817383,0.00579834
424,0.2125,0.004272461,0.002441406
425,0.213,-0.001220703,0.005187988
426,0.2135,-0.006408691,-0.000305176
427,0.214,-0.01159668,0.001220703
428,0.2145,-0.015563965,0.00793457
429,0.215,-0.017700195,0.007629395
430,0.2155,-0.023498535,0.008239746
431,0.216,-0.029602051,0.011901855
432,0.2165,-0.026550293,0.017700195
433,0.217,-0.018920898,0.022888184
434,0.2175,-0.021057129,0.028381348
435,0.218,-0.035400391,0.030822754
436,0.2185,-0.034790039,0.035705566
437,0.219,-0.02532959,0.025634766
438,0.2195,-0.023498535,0.008850098
439,0.22,-0.02166748,-0.003356934
440,0.2205,-0.017700195,-0.011291504
441,0.221,-0.018920898,-0.010375977
442,0.2215,-0.018005371,-0.008850098
443,0.222,-0.008544922,-0.004577637
444,0.2225,0.002441406,-0.00213623
445,0.223,0.010070801,-0.000305176
446,0.2235,0.010070801,0.000305176
447,0.224,0.009765625,-0.003967285
448,0.2245,0.010681152,-0.003662109
449,0.225,0.012207031,-0.003051758
450,0.2255,0.016174316,-0.002746582
451,0.226,0.025024414,-0.002746582
452,0.2265,0.025634766,0.0
453,0.227,0.023193359,0.003967285
454,0.2275,0.027770996,0.005187988
455,0.228,0.037841797,0.004577637
456,0.2285,0.032043457,0.008850098
457,0.229,0.025024414,0.008850098
458,0.2295,0.028686523,0.018005371
459,0.23,0.029907227,0.023803711
460,0.2305,0.027160645,0.02166748
461,0.231,0.025634766,0.018615723
462,0.2315,0.020141602,0.014648438
463,0.232,0.009460449,0.013427734
464,0.2325,0.003967285,0.016174316
465,0.233,-0.000610352,0.016174316
466,0.2335,-0.007019043,0.008544922
467,0.234,-0.010375977,0.007019043
468,0.2345,-0.014648438,0.008544922
469,0.235,-0.018615723,0.008544922
470,0.2355,-0.021972656,0.008850098
471,0.236,-0.028381348,0.003051758
472,0.2365,-0.023803711,-0.000610352
473,0.237,-0.016174316,-0.000610352
474,0.2375,-0.016174316,-0.004882813
475,0.238,-0.028076172,-0.006408691
476,0.2385,-0.025939941,-0.006713867
477,0.239,-0.01953125,-0.008239746
478,0.2395,-0.019226074,-0.003051758
479,0.24,-0.015563965,-0.005493164
480,0.2405,-0.012207031,-0.016784668
481,0.241,-0.018615723,-0.026550293
482,0.2415,-0.020751953,-0.021972656
483,0.242,-0.016174316,-0.016174316
484,0.2425,-0.007629395,-0.012817383
485,0.243,-0.000305176,-0.010070801
486,0.2435,0.002441406,-0.009460449
487,0.244,0.005187988,-0.011291504
488,0.2445,0.008239746,-0.010986328
489,0.245,0.009460449,-0.012512207
490,0.2455,0.012512207,-0.014038086
491,0.246,0.02166748,-0.009460449
492,0.2465,0.023193359,-0.006408691
493,0.247,0.022583008,-0.008239746
494,0.2475,0.028381348,-0.001525879
495,0.248,0.039367676,0.000915527
496,0.2485,0.036315918,0.001220703
497,0.249,0.029602051,0.006713867
498,0.2495,0.03112793,0.013427734
499,0.25,0.026245117,0.013427734
500,0.2505,0.022583008,0.00793457
501,0.251,0.022583008,-0.004272461
502,0.2515,0.016479492,-0.009460449
503,0.252,0.009155273,-0.005493164
504,0.2525,0.003356934,-0.000915527
505,0.253,-0.00213623,-0.004272461
506,0.2535,-0.006713867,-0.000915527
507,0.254,-0.00793457,0.010375977
508,0.2545,-0.01159668,0.017700195
509,0.255,-0.012512207,0.015869141
510,0.2555,-0.018615723,0.017089844
511,0.256,-0.027770996,0.011291504
512,0.2565,-0.028686523,0.006103516
513,0.257,-0.023498535,0.001831055
514,0.2575,-0.02746582,-0.006408691
515,0.258,-0.041503906,-0.009765625
516,0.2585,-0.04119873,-0.009765625
517,0.259,-0.031738281,-0.005493164
518,0.2595,-0.029907227,0.0
519,0.26,-0.027770996,-0.001831055
520,0.2605,-0.022583008,-0.006103516
521,0.261,-0.020751953,-0.010681152
522,0.2615,-0.016784668,-0.013427734
523,0.262,-0.010070801,-0.014343262
524,0.2625,-0.00579834,-0.018310547
525,0.263,-0.000610352,-0.022888184
526,0.2635,0.004577637,-0.018615723
527,0.264,0.009155273,-0.01953125
528,0.2645,0.012512207,-0.01739502
529,0.265,0.016784668,-0.01159668
530,0.2655,0.017700195,-0.004272461
531,0.266,0.023803711,-0.003356934
532,0.2665,0.022277832,0.000610352
533,0.267,0.018005371,0.000305176
534,0.2675,0.021972656,0.007324219
535,0.268,0.031433105,0.008239746
536,0.2685,0.028991699,0.002746582
537,0.269,0.024719238,-0.001525879
538,0.2695,0.025634766,0.000305176
539,0.27,0.025939941,0.007629395
540,0.2705,0.021972656,0.016174316
541,0.271,0.021972656,0.012817383
542,0.2715,0.015258789,0.010375977
543,0.272,0.005493164,0.011291504
544,0.2725,-0.000610352,0.021362305
545,0.273,-0.004272461,0.019226074
546,0.2735,-0.008239746,0.015563965
547,0.274,-0.00793457,0.018920898
548,0.2745,-0.011901855,0.01373291
549,0.275,-0.014038086,0.014038086
550,0.2755,-0.022277832,0.009155273
551,0.276,-0.028381348,0.003051758
552,0.2765,-0.025634766,-0.003051758
553,0.277,-0.021362305,-0.006713867
554,0.2775,-0.027160645,-0.012207031
555,0.278,-0.042114258,-0.014648438
556,0.2785,-0.040283203,-0.003967285
557,0.279,-0.033569336,0.006713867
558,0.2795,-0.028991699,0.013122559
559,0.28,-0.024719238,0.012207031
560,0.2805,-0.021362305,0.014038086
561,0.281,-0.02166748,0.009765625
562,0.2815,-0.016174316,0.010375977
563,0.282,-0.006103516,0.014038086
564,0.2825,0.006713867,0.004882813
565,0.283,0.014953613,-0.000610352
566,0.2835,0.016784668,-0.008850098
567,0.284,0.015563965,-0.012817383
568,0.2845,0.014343262,-0.010070801
569,0.285,0.015869141,-0.00793457
570,0.2855,0.021362305,-0.003967285
571,0.286,0.024414063,-0.002441406
572,0.2865,0.01953125,-0.007019043
573,0.287,0.011901855,-0.011901855
574,0.2875,0.017700195,-0.009460449
575,0.288,0.03112793,-0.007324219
576,0.2885,0.030212402,-0.006713867
577,0.289,0.028381348,-0.006713867
578,0.2895,0.03112793,-0.006408691
579,0.29,0.030212402,-0.006103516
580,0.2905,0.023803711,-0.00579834
581,0.291,0.026550293,-0.003967285
582,0.2915,0.027160645,-0.007019043
583,0.292,0.01953125,-0.006408691
584,0.2925,0.01159668,-0.005493164
585,0.293,0.001831055,-0.002441406
586,0.2935,-0.003967285,0.003967285
587,0.294,-0.007019043,0.007629395
588,0.2945,-0.014038086,0.009155273
589,0.295,-0.018920898,0.008850098
590,0.2955,-0.028381348,0.007629395
591,0.296,-0.0390625,0.005187988
592,0.2965,-0.030517578,0.006103516
593,0.297,-0.027770996,0.004882813
594,0.2975,-0.032348633,-0.004577637
595,0.298,-0.033569336,-0.013427734
596,0.2985,-0.023193359,-0.018310547
597,0.299,-0.013427734,-0.024719238
598,0.2995,-0.014038086,-0.032348633
599,0.3,-0.016479492,-0.030822754
600,0.3005,-0.021362305,-0.026550293
601,0.301,-0.02532959,-0.030822754
602,0.3015,-0.021362305,-0.03692627
603,0.302,-0.011901855,-0.0390625
604,0.3025,-0.009460449,-0.035095215
605,0.303,-0.006103516,-0.028686523
606,0.3035,-0.000915527,-0.030517578
607,0.304,0.004577637,-0.028076172
608,0.3045,0.012512207,-0.020141602
609,0.305,0.018920898,-0.019226074
610,0.3055,0.026245117,-0.018005371
611,0.306,0.035095215,-0.015563965
612,0.3065,0.025939941,-0.004882813
613,0.307,0.016784668,-0.008239746
614,0.3075,0.02166748,-0.007629395
615,0.308,0.032043457,0.008239746
616,0.3085,0.03326416,0.008239746
617,0.309,0.03326416,0.008850098
618,0.3095,0.028076172,0.017089844
619,0.31,0.020141602,0.024719238
620,0.3105,0.01739502,0.029296875
621,0.311,0.020141602,0.035705566
622,0.3115,0.016784668,0.025939941
623,0.312,0.009765625,0.014648438
624,0.3125,0.004272461,0.014953613
625,0.313,0.00213623,0.01739502
626,0.3135,0.002441406,0.016784668
627,0.314,-0.001220703,0.01373291
628,0.3145,-0.006103516,0.01373291
629,0.315,-0.008544922,0.01373291
630,0.3155,-0.016174316,0.006408691
631,0.316,-0.025939941,0.000915527
632,0.3165,-0.026550293,0.001525879
633,0.317,-0.025939941,0.000610352
634,0.3175,-0.028381348,-0.003051758
635,0.318,-0.03326416,-0.00793457
636,0.3185,-0.029296875,-0.011901855
637,0.319,-0.02532959,-0.003967285
638,0.3195,-0.024719238,-0.001831055
639,0.32,-0.020751953,0.003662109
640,0.3205,-0.020141602,0.006408691
641,0.321,-0.018310547,0.003051758
642,0.3215,-0.012817383,0.000915527
643,0.322,-0.006408691,0.003662109
644,0.3225,-0.004577637,0.003356934
645,0.323,0.004272461,-0.000305176
646,0.3235,0.00793457,0.000305176
647,0.324,0.006713867,0.003662109
648,0.3245,0.012207031,0.00213623
649,0.325,0.016479492,0.003662109
650,0.3255,0.023803711,0.004882813
651,0.326,0.03112793,0.010986328
652,0.3265,0.030517578,0.016479492
653,0.327,0.025024414,0.014953613
654,0.3275,0.031433105,0.016174316
655,0.328,0.049133301,0.015869141
656,0.3285,0.044250488,0.012817383
657,0.329,0.033874512,0.005187988
658,0.3295,0.034484863,-0.000610352
659,0.33,0.030822754,-0.00213623
660,0.3305,0.024414063,-0.008850098
661,0.331,0.024414063,-0.012207031
662,0.3315,0.019836426,-0.013122559
663,0.332,0.012512207,-0.01953125
664,0.3325,0.007019043,-0.020446777
665,0.333,-0.000305176,-0.018615723
666,0.3335,-0.005493164,-0.016479492
667,0.334,-0.008239746,-0.009460449
668,0.3345,-0.008544922,-0.00579834
669,0.335,-0.014343262,0.000915527
670,0.3355,-0.022583008,0.0
671,0.336,-0.030517578,0.004882813
672,0.3365,-0.030212402,0.012207031
673,0.337,-0.028381348,0.017700195
674,0.3375,-0.033874512,0.00793457
675,0.338,-0.041809082,0.009765625
676,0.3385,-0.034790039,-0.001525879
677,0.339,-0.02532959,-0.018310547
678,0.3395,-0.02746582,-0.030822754
679,0.34,-0.022888184,-0.035095215
680,0.3405,-0.018005371,-0.03326416
681,0.341,-0.018310547,-0.022888184
682,0.3415,-0.008544922,-0.01739502
683,0.342,0.003662109,-0.011901855
684,0.3425,0.006103516,-0.012512207
685,0.343,0.006713867,-0.010070801
686,0.3435,0.00793457,-0.010070801
687,0.344,0.01373291,-0.004272461
688,0.3445,0.015258789,0.000305176
689,0.345,0.014038086,0.001525879
690,0.3455,0.019226074,0.003967285
691,0.346,0.028686523,0.0
692,0.3465,0.027160645,-0.000305176
693,0.347,0.026245117,0.003662109
694,0.3475,0.032653809,0.009155273
695,0.348,0.041503906,0.009765625
696,0.3485,0.034790039,0.008239746
697,0.349,0.029602051,0.004577637
698,0.3495,0.026245117,0.00213623
699,0.35,0.024719238,0.0
700,0.3505,0.024108887,-0.002441406
701,0.351,0.023193359,0.000305176
702,0.3515,0.016784668,0.007324219
703,0.352,0.008544922,0.010681152
704,0.3525,0.00213623,0.01373291
705,0.353,-0.010070801,0.016784668
706,0.3535,-0.013122559,0.012512207
707,0.354,-0.013427734,0.011291504
708,0.3545,-0.013122559,0.007019043
709,0.355,-0.010986328,0.004882813
710,0.3555,-0.019226074,0.00213623
711,0.356,-0.032348633,0.0
712,0.3565,-0.027160645,-0.002746582
713,0.357,-0.019226074,-0.000305176
714,0.3575,-0.022583008,0.000305176
715,0.358,-0.029296875,0.000305176
716,0.3585,-0.027770996,-0.003662109
717,0.359,-0.023498535,-0.012207031
718,0.3595,-0.026550293,-0.012817383
719,0.36,-0.028686523,-0.014343262
720,0.3605,-0.026855469,-0.020751953
721,0.361,-0.02532959,-0.026855469
722,0.3615,-0.018005371,-0.026245117
723,0.362,-0.008239746,-0.018005371
724,0.3625,-0.001525879,-0.010070801
725,0.363,0.000610352,-0.010681152
726,0.3635,0.000610352,-0.008544922
727,0.364,0.001525879,-0.004882813
728,0.3645,0.010070801,-0.008239746
729,0.365,0.02166748,-0.015563965
730,0.3655,0.025939941,-0.012207031
731,0.366,0.030822754,-0.010986328
732,0.3665,0.02532959,-0.009765625
733,0.367,0.021972656,-0.003051758
734,0.3675,0.026245117,0.005187988
735,0.368,0.032653809,0.001220703
736,0.3685,0.030212402,0.00213623
737,0.369,0.027160645,0.003967285
738,0.3695,0.024414063,0.00579834
739,0.37,0.021972656,0.01159668
740,0.3705,0.02166748,0.015869141
741,0.371,0.023193359,0.019226074
742,0.3715,0.018005371,0.021362305
743,0.372,0.013122559,0.024719238
744,0.3725,0.005493164,0.024108887
745,0.373,-0.003051758,0.02166748
746,0.3735,-0.006713867,0.020446777
747,0.374,-0.008850098,0.018310547
748,0.3745,-0.011291504,0.013427734
749,0.375,-0.01739502,0.001220703
750,0.3755,-0.01953125,-0.001220703
751,0.376,-0.023498535,-0.006713867
752,0.3765,-0.025024414,-0.010070801
753,0.377,-0.026550293,-0.012817383
754,0.3775,-0.032043457,-0.010070801
755,0.378,-0.039672852,-0.008544922
756,0.3785,-0.035705566,-0.008544922
757,0.379,-0.027160645,-0.00579834
758,0.3795,-0.027770996,-0.008239746
759,0.38,-0.028381348,-0.006408691
760,0.3805,-0.026550293,-0.001831055
761,0.381,-0.026855469,0.001220703
762,0.3815,-0.021362305,0.001525879
763,0.382,-0.00793457,0.002746582
764,0.3825,0.000610352,-0.003662109
765,0.383,0.004882813,-0.001220703
766,0.3835,0.004882813,0.003662109
767,0.384,0.005493164,0.003356934
768,0.3845,0.009155273,0.002746582
769,0.385,0.009155273,-0.004882813
770,0.3855,0.016174316,-0.010986328
771,0.386,0.026855469,-0.008850098
772,0.3865,0.026245117,-0.004577637
773,0.387,0.023803711,-0.00579834
774,0.3875,0.028686523,-0.016479492
775,0.388,0.037536621,-0.014648438
776,0.3885,0.030517578,-0.010681152
777,0.389,0.024108887,-0.007019043
778,0.3895,0.026855469,-0.00579834
779,0.39,0.027770996,-0.001220703
780,0.3905,0.026550293,0.002441406
781,0.391,0.022888184,0.003356934
782,0.3915,0.014648438,0.007324219
783,0.392,0.00579834,0.009155273
784,0.3925,-0.002746582,0.007629395
785,0.393,-0.005187988,0.005493164
786,0.3935,-0.004272461,-0.000305176
787,0.394,-0.010070801,-0.007019043
788,0.3945,-0.015563965,-0.010986328
789,0.395,-0.022277832,-0.010986328
790,0.3955,-0.025024414,-0.015869141
791,0.396,-0.027770996,-0.027160645
792,0.3965,-0.022583008,-0.035705566
793,0.397,-0.023193359,-0.030212402
794,0.3975,-0.031433105,-0.027770996
795,0.398,-0.04119873,-0.020751953
796,0.3985,-0.04119873,-0.010070801
797,0.399,-0.038146973,-0.00579834
798,0.3995,-0.03692627,-0.006103516
799,0.4,-0.032043457,-0.001220703
800,0.4005,-0.028076172,0.002441406
801,0.401,-0.027160645,0.005187988
802,0.4015,-0.020141602,0.009460449
803,0.402,-0.010986328,0.010070801
804,0.4025,-0.004577637,0.007019043
805,0.403,-0.001220703,0.01159668
806,0.4035,-0.001831055,0.021972656
807,0.404,0.001525879,0.028686523
808,0.4045,0.009460449,0.033569336
809,0.405,0.01373291,0.029602051
810,0.4055,0.02166748,0.027160645
811,0.406,0.027160645,0.023498535
812,0.4065,0.022277832,0.011901855
813,0.407,0.019836426,0.006103516
814,0.4075,0.026855469,0.003662109
815,0.408,0.03692627,-0.011291504
816,0.4085,0.027770996,-0.019836426
817,0.409,0.024414063,-0.014343262
818,0.4095,0.031433105,-0.009155273
819,0.41,0.031433105,-0.011291504
820,0.4105,0.024414063,-0.008544922
821,0.411,0.02166748,-0.00213623
822,0.4115,0.014038086,-0.001525879
823,0.412,0.005187988,-0.000305176
824,0.4125,-0.005187988,0.002441406
825,0.413,-0.004272461,0.00793457
826,0.4135,-0.007629395,0.01159668
827,0.414,-0.014343262,0.012512207
828,0.4145,-0.016479492,0.014953613
829,0.415,-0.018005371,0.010375977
830,0.4155,-0.021057129,0.007019043
831,0.416,-0.023193359,0.00793457
832,0.4165,-0.021362305,0.005493164
833,0.417,-0.016784668,-0.005187988
834,0.4175,-0.022277832,-0.014343262
835,0.418,-0.036010742,-0.022277832
836,0.4185,-0.035705566,-0.025939941
837,0.419,-0.032958984,-0.028381348
838,0.4195,-0.034484863,-0.02746582
839,0.42,-0.026245117,-0.027160645
840,0.4205,-0.021972656,-0.026245117
841,0.421,-0.022888184,-0.023803711
842,0.4215,-0.017089844,-0.022277832
843,0.422,-0.009460449,-0.013122559
844,0.4225,-0.004882813,-0.009765625
845,0.423,-0.003662109,-0.012512207
846,0.4235,-0.001525879,-0.011291504
847,0.424,0.003051758,-0.001220703
848,0.4245,0.009460449,0.0
849,0.425,0.017089844,0.002746582
850,0.4255,0.025939941,0.01159668
851,0.426,0.025939941,0.016174316
852,0.4265,0.020751953,0.014038086
853,0.427,0.018920898,0.016479492
854,0.4275,0.028076172,0.021057129
855,0.428,0.038452148,0.021057129
856,0.4285,0.028686523,0.018920898
857,0.429,0.022888184,0.018615723
858,0.4295,0.025939941,0.008544922
859,0.43,0.023193359,0.000305176
860,0.4305,0.02166748,-0.009155273
861,0.431,0.023803711,-0.018310547
862,0.4315,0.015563965,-0.025939941
863,0.432,0.007629395,-0.031738281
864,0.4325,-0.000610352,-0.027770996
865,0.433,-0.004882813,-0.02746582
866,0.4335,-0.003051758,-0.016479492
867,0.434,-0.003051758,-0.003356934
868,0.4345,-0.005187988,-0.008850098
869,0.435,-0.009155273,-0.006103516
870,0.4355,-0.021972656,-0.000610352
871,0.436,-0.03326416,0.004577637
872,0.4365,-0.034790039,0.003967285
873,0.437,-0.03112793,0.00793457
874,0.4375,-0.037231445,0.008544922
875,0.438,-0.043029785,0.00579834
876,0.4385,-0.032348633,0.008850098
877,0.439,-0.018005371,0.012512207
878,0.4395,-0.01739502,0.018615723
879,0.44,-0.020751953,0.021972656
880,0.4405,-0.02166748,0.015258789
881,0.441,-0.020751953,0.016174316
882,0.4415,-0.015258789,0.014648438
883,0.442,-0.011291504,0.013122559
884,0.4425,-0.006713867,0.013427734
885,0.443,0.000305176,0.020446777
886,0.4435,0.007324219,0.015563965
887,0.444,0.010986328,0.009460449
888,0.4445,0.022277832,0.005187988
889,0.445,0.025939941,0.003662109
890,0.4455,0.032043457,-0.003662109
891,0.446,0.032348633,-0.012207031
892,0.4465,0.023498535,-0.017089844
893,0.447,0.016479492,-0.021057129
894,0.4475,0.022583008,-0.01739502
895,0.448,0.029907227,-0.015258789
896,0.4485,0.02746582,-0.008239746
897,0.449,0.022583008,-0.00579834
898,0.4495,0.026245117,-0.001831055
899,0.45,0.025024414,-0.003051758
900,0.4505,0.024108887,0.001220703
901,0.451,0.026245117,0.003662109
902,0.4515,0.022583008,0.008544922
903,0.452,0.009765625,0.015869141
904,0.4525,-0.001831055,0.015869141
905,0.453,-0.010070801,0.018005371
906,0.4535,-0.011291504,0.01373291
907,0.454,-0.010986328,0.006408691
908,0.4545,-0.012817383,0.003051758
909,0.455,-0.018615723,0.000915527
910,0.4555,-0.024414063,-0.002441406
911,0.456,-0.028076172,0.000610352
912,0.4565,-0.022277832,0.001525879
913,0.457,-0.018310547,0.003662109
914,0.4575,-0.027770996,0.000915527
915,0.458,-0.038757324,-0.006103516
916,0.4585,-0.035095215,-0.008544922
917,0.459,-0.02746582,-0.010986328
918,0.4595,-0.025634766,-0.015869141
919,0.46,-0.021362305,-0.014648438
920,0.4605,-0.019226074,-0.015869141
921,0.461,-0.024108887,-0.018310547
922,0.4615,-0.01953125,-0.016479492
923,0.462,-0.010986328,-0.014953613
924,0.4625,-0.006408691,-0.007019043
925,0.463,-0.000610352,-0.005493164
926,0.4635,0.001831055,-0.00213623
927,0.464,0.002746582,0.006103516
928,0.4645,0.005493164,0.008239746
929,0.465,0.017089844,0.005187988
930,0.4655,0.025634766,-0.001220703
931,0.466,0.026550293,-0.003662109
932,0.4665,0.026245117,-0.008850098
933,0.467,0.021362305,-0.004577637
934,0.4675,0.024719238,0.002441406
935,0.468,0.035400391,-0.005187988
936,0.4685,0.032043457,-0.00793457
937,0.469,0.026550293,-0.008850098
938,0.4695,0.028686523,-0.001831055
939,0.47,0.026550293,0.004272461
940,0.4705,0.026245117,0.004882813
941,0.471,0.032958984,0.007019043
942,0.4715,0.029602051,0.003356934
943,0.472,0.017700195,0.001220703
944,0.4725,0.007629395,-0.003967285
945,0.473,-0.002441406,0.001831055
946,0.4735,-0.011291504,0.004882813
947,0.474,-0.017089844,0.006408691
948,0.4745,-0.023803711,0.010375977
949,0.475,-0.026550293,0.001220703
950,0.4755,-0.028076172,-0.006103516
951,0.476,-0.031433105,-0.001525879
952,0.4765,-0.023803711,0.009155273
953,0.477,-0.018615723,0.009460449
954,0.4775,-0.022888184,0.003967285
955,0.478,-0.032958984,0.000305176
956,0.4785,-0.029602051,0.002746582
957,0.479,-0.023498535,0.004577637
958,0.4795,-0.025939941,0.000915527
959,0.48,-0.022888184,0.002441406
960,0.4805,-0.01953125,0.003051758
961,0.481,-0.018920898,0.006103516
962,0.4815,-0.016784668,0.010375977
963,0.482,-0.012207031,0.015258789
964,0.4825,-0.008239746,0.015563965
965,0.483,0.000305176,0.015869141
966,0.4835,0.002746582,0.016479492
967,0.484,0.004882813,0.014343262
968,0.4845,0.008239746,0.015563965
969,0.485,0.011291504,0.016784668
970,0.4855,0.021972656,0.012512207
971,0.486,0.038452148,0.006408691
972,0.4865,0.0390625,0.003051758
973,0.487,0.030822754,0.001525879
974,0.4875,0.038146973,-0.003051758
975,0.488,0.04486084,-0.003967285
976,0.4885,0.030822754,-0.004272461
977,0.489,0.023498535,-0.006713867
978,0.4895,0.025634766,-0.009155273
979,0.49,0.024719238,-0.014648438
980,0.4905,0.024719238,-0.01739502
981,0.491,0.026245117,-0.016479492
982,0.4915,0.024719238,-0.012207031
983,0.492,0.015563965,-0.010375977
984,0.4925,0.008239746,-0.007629395
985,0.493,0.000915527,-0.002746582
986,0.4935,-0.003967285,-0.001831055
987,0.494,-0.007324219,-0.008544922
988,0.4945,-0.010375977,-0.014953613
989,0.495,-0.018005371,-0.014343262
990,0.4955,-0.026245117,-0.017700195
991,0.496,-0.028686523,-0.02166748
992,0.4965,-0.025939941,-0.023193359
993,0.497,-0.024414063,-0.025939941
994,0.4975,-0.033569336,-0.023498535
995,0.498,-0.041503906,-0.021057129
996,0.4985,-0.035705566,-0.014038086
997,0.499,-0.030822754,-0.015258789
998,0.4995,-0.031433105,-0.018005371
999,0.5,-0.028076172,-0.006408691
1000,0.5005,-0.024414063,-0.004882813
1001,0.501,-0.024414063,-0.002746582
1002,0.5015,-0.018005371,0.005493164
1003,0.502,-0.005493164,0.009155273
1004,0.5025,0.0,0.009155273
1005,0.503,0.00213623,0.013427734
1006,0.5035,0.005187988,0.016784668
1007,0.504,0.004577637,0.023193359
1008,0.5045,0.00579834,0.025024414
1009,0.505,0.007629395,0.025024414
1010,0.5055,0.01373291,0.023498535
1011,0.506,0.025024414,0.025024414
1012,0.5065,0.028686523,0.022277832
1013,0.507,0.029602051,0.018920898
1014,0.5075,0.032653809,0.018310547
1015,0.508,0.035400391,0.00793457
1016,0.5085,0.032348633,-0.00579834
1017,0.509,0.026550293,-0.015563965
1018,0.5095,0.023803711,-0.026245117
1019,0.51,0.018005371,-0.024719238
1020,0.5105,0.011291504,-0.014953613
1021,0.511,0.011901855,-0.008850098
1022,0.5115,0.01159668,-0.010375977
1023,0.512,0.006408691,-0.008544922
1024,0.5125,-0.002746582,-0.002441406
1025,0.513,-0.007324219,-0.003051758
1026,0.5135,-0.01159668,0.000305176
1027,0.514,-0.017700195,0.00213623
1028,0.5145,-0.020141602,0.003967285
1029,0.515,-0.020751953,0.009155273
1030,0.5155,-0.02746582,0.018005371
1031,0.516,-0.032043457,0.01953125
1032,0.5165,-0.029602051,0.015563965
1033,0.517,-0.024108887,0.01159668
1034,0.5175,-0.030517578,0.001831055
1035,0.518,-0.037231445,-0.010375977
1036,0.5185,-0.030212402,-0.020141602
1037,0.519,-0.030212402,-0.028381348
1038,0.5195,-0.028686523,-0.02532959
1039,0.52,-0.024719238,-0.024414063
1040,0.5205,-0.022888184,-0.025024414
1041,0.521,-0.019226074,-0.028381348
1042,0.5215,-0.014038086,-0.032348633
1043,0.522,-0.009460449,-0.031433105
1044,0.5225,-0.006713867,-0.030822754
1045,0.523,0.003662109,-0.02532959
1046,0.5235,0.002441406,-0.017089844
1047,0.524,0.000610352,-0.014953613
1048,0.5245,0.00213623,-0.009460449
1049,0.525,0.006408691,-0.012817383
1050,0.5255,0.014953613,-0.004882813
1051,0.526,0.020751953,0.003967285
1052,0.5265,0.020141602,0.003051758
1053,0.527,0.01953125,-0.003967285
1054,0.5275,0.028381348,-0.004272461
1055,0.528,0.038146973,-0.001831055
1056,0.5285,0.034484863,0.001831055
1057,0.529,0.026855469,0.006713867
1058,0.5295,0.029602051,0.005187988
1059,0.53,0.024719238,0.003662109
1060,0.5305,0.019836426,0.0
1061,0.531,0.016784668,0.003967285
1062,0.5315,0.010375977,0.003967285
1063,0.532,0.003967285,-0.003051758
1064,0.5325,-0.000610352,-0.002441406
1065,0.533,-0.004577637,0.00213623
1066,0.5335,-0.00579834,0.003051758
1067,0.534,-0.010375977,0.002441406
1068,0.5345,-0.014648438,0.010986328
1069,0.535,-0.018615723,0.015869141
1070,0.5355,-0.023803711,0.013122559
1071,0.536,-0.025634766,0.011291504
1072,0.5365,-0.02166748,0.004272461
1073,0.537,-0.020751953,-0.002746582
1074,0.5375,-0.031738281,-0.014038086
1075,0.538,-0.040588379,-0.01373291
1076,0.5385,-0.042114258,-0.010986328
1077,0.539,-0.039978027,-0.009765625
1078,0.5395,-0.045471191,-0.010681152
1079,0.54,-0.040588379,-0.006103516
1080,0.5405,-0.032653809,-0.012817383
1081,0.541,-0.029296875,-0.022277832
1082,0.5415,-0.021362305,-0.021362305
1083,0.542,-0.015258789,-0.014343262
1084,0.5425,-0.00793457,-0.010681152
1085,0.543,0.000305176,-0.003356934
1086,0.5435,0.00793457,0.00213623
1087,0.544,0.011291504,0.009155273
1088,0.5445,0.012207031,0.015869141
1089,0.545,0.009765625,0.018310547
1090,0.5455,0.015869141,0.018310547
1091,0.546,0.01953125,0.014038086
1092,0.5465,0.016174316,0.010375977
1093,0.547,0.013427734,-0.003967285
1094,0.5475,0.022888184,-0.00793457
1095,0.548,0.032348633,-0.00579834
1096,0.5485,0.026245117,-0.006103516
1097,0.549,0.020751953,-0.002746582
1098,0.5495,0.024108887,0.002441406
1099,0.55,0.020446777,0.00579834
1100,0.5505,0.018920898,0.007324219
1101,0.551,0.020141602,0.00579834
1102,0.5515,0.014953613,0.004882813
1103,0.552,0.009155273,0.003356934
1104,0.5525,0.004577637,0.009155273
1105,0.553,-0.004272461,0.019226074
1106,0.5535,-0.014648438,0.018005371
1107,0.554,-0.020141602,0.018005371
1108,0.5545,-0.01953125,0.019836426
1109,0.555,-0.020751953,0.01953125
1110,0.5555,-0.022888184,0.009460449
1111,0.556,-0.028381348,0.00213623
1112,0.5565,-0.026855469,-0.006408691
1113,0.557,-0.024108887,-0.014953613
1114,0.5575,-0.030517578,-0.022277832
1115,0.558,-0.039367676,-0.031738281
1116,0.5585,-0.035095215,-0.032348633
1117,0.559,-0.032348633,-0.033874512
1118,0.5595,-0.032348633,-0.034790039
1119,0.56,-0.028076172,-0.035095215
1120,0.5605,-0.027770996,-0.033569336
1121,0.561,-0.02746582,-0.031433105
1122,0.5615,-0.016784668,-0.030517578
1123,0.562,-0.010986328,-0.025634766
1124,0.5625,-0.004577637,-0.023498535
1125,0.563,0.00579834,-0.017089844
1126,0.5635,0.008544922,-0.014343262
1127,0.564,0.008544922,-0.010986328
1128,0.5645,0.010070801,-0.010986328
1129,0.565,0.011901855,-0.013427734
1130,0.5655,0.023803711,-0.009460449
1131,0.566,0.032958984,-0.010070801
1132,0.5665,0.030212402,-0.01373291
1133,0.567,0.025939941,-0.008239746
1134,0.5675,0.027160645,0.008239746
1135,0.568,0.032653809,0.020141602
1136,0.5685,0.030212402,0.016174316
1137,0.569,0.02746582,0.011291504
1138,0.5695,0.030517578,0.004882813
1139,0.57,0.029907227,0.004882813
1140,0.5705,0.027160645,0.010681152
1141,0.571,0.025024414,0.009460449
1142,0.5715,0.015563965,0.006103516
1143,0.572,0.004882813,0.009155273
1144,0.5725,-0.00213623,0.022583008
1145,0.573,-0.007324219,0.022888184
1146,0.5735,-0.009765625,0.020751953
1147,0.574,-0.01159668,0.016479492
1148,0.5745,-0.010681152,0.010070801
1149,0.575,-0.012512207,0.006103516
1150,0.5755,-0.022888184,0.003662109
1151,0.576,-0.028991699,0.01159668
1152,0.5765,-0.025939941,0.011291504
1153,0.577,-0.024414063,0.012817383
1154,0.5775,-0.032348633,0.011901855
1155,0.578,-0.043640137,0.000915527
1156,0.5785,-0.039978027,-0.007629395
1157,0.579,-0.033569336,-0.007629395
1158,0.5795,-0.035400391,-0.003662109
1159,0.58,-0.034179688,-0.008239746
1160,0.5805,-0.029907227,-0.015563965
1161,0.581,-0.024108887,-0.020141602
1162,0.5815,-0.011901855,-0.019836426
1163,0.582,-0.004882813,-0.017089844
1164,0.5825,-0.000610352,-0.021362305
1165,0.583,0.00579834,-0.024414063
1166,0.5835,0.004577637,-0.025634766
1167,0.584,0.003662109,-0.025024414
1168,0.5845,0.010681152,-0.028381348
1169,0.585,0.019836426,-0.025634766
1170,0.5855,0.029907227,-0.022888184
1171,0.586,0.031738281,-0.018920898
1172,0.5865,0.025634766,-0.01373291
1173,0.587,0.020446777,-0.000610352
1174,0.5875,0.026550293,0.004577637
1175,0.588,0.035400391,0.002441406
1176,0.5885,0.031433105,0.003662109
1177,0.589,0.025634766,0.001525879
1178,0.5895,0.027770996,0.006713867
1179,0.59,0.02746582,0.01159668
1180,0.5905,0.023498535,0.005493164
1181,0.591,0.016174316,0.00579834
1182,0.5915,0.01159668,0.006408691
1183,0.592,0.003356934,0.004577637
1184,0.5925,0.001525879,0.00213623
1185,0.593,-0.00213623,0.000915527
1186,0.5935,-0.003662109,-0.001831055
1187,0.594,-0.008544922,-0.004272461
1188,0.5945,-0.010070801,-0.006408691
1189,0.595,-0.015869141,0.000610352
1190,0.5955,-0.025634766,0.00579834
1191,0.596,-0.032958984,0.011901855
1192,0.5965,-0.031433105,0.009765625
1193,0.597,-0.030212402,0.00793457
1194,0.5975,-0.039367676,0.00793457
1195,0.598,-0.045166016,0.006408691
1196,0.5985,-0.036010742,0.010986328
1197,0.599,-0.030212402,0.015563965
1198,0.5995,-0.029296875,0.014953613
1199,0.6,-0.020446777,0.018920898
1200,0.6005,-0.015869141,0.020751953
1201,0.601,-0.019836426,0.020141602
1202,0.6015,-0.014343262,0.016784668
1203,0.602,-0.006408691,0.010070801
1204,0.6025,0.001220703,0.008544922
1205,0.603,0.008239746,0.005187988
1206,0.6035,0.010986328,0.003967285
1207,0.604,0.010070801,0.000915527
1208,0.6045,0.014343262,0.001831055
1209,0.605,0.019226074,-0.00213623
1210,0.6055,0.02532959,-0.003356934
1211,0.606,0.028381348,-0.006713867
1212,0.6065,0.025634766,-0.007019043
1213,0.607,0.020141602,-0.001525879
1214,0.6075,0.028686523,0.00213623
1215,0.608,0.037231445,-0.000610352
1216,0.6085,0.028686523,-0.009155273
1217,0.609,0.020751953,-0.01739502
1218,0.6095,0.022583008,-0.011901855
1219,0.61,0.021972656,-0.009155273
1220,0.6105,0.023803711,-0.009155273
1221,0.611,0.02166748,-0.008239746
1222,0.6115,0.014953613,-0.016174316
1223,0.612,0.004577637,-0.027770996
1224,0.6125,-0.002441406,-0.028686523
1225,0.613,-0.007324219,-0.024414063
1226,0.6135,-0.010681152,-0.015869141
1227,0.614,-0.014648438,-0.013427734
1228,0.6145,-0.013122559,-0.015563965
1229,0.615,-0.017089844,-0.009765625
1230,0.6155,-0.024719238,-0.003356934
1231,0.616,-0.028076172,0.002746582
1232,0.6165,-0.022888184,0.017700195
1233,0.617,-0.02166748,0.025939941
1234,0.6175,-0.029602051,0.028686523
1235,0.618,-0.037536621,0.021057129
1236,0.6185,-0.038146973,0.014038086
1237,0.619,-0.034179688,0.005493164
1238,0.6195,-0.032348633,-0.000610352
1239,0.62,-0.027160645,-0.003356934
1240,0.6205,-0.024108887,-0.015869141
1241,0.621,-0.025939941,-0.020751953
1242,0.6215,-0.018615723,-0.016479492
1243,0.622,-0.00793457,-0.012207031
1244,0.6225,-0.000305176,-0.01159668
1245,0.623,0.004272461,-0.00793457
1246,0.6235,0.005493164,-0.00793457
1247,0.624,0.008544922,-0.009155273
1248,0.6245,0.012207031,-0.012207031
1249,0.625,0.018615723,-0.012817383
1250,0.6255,0.024414063,-0.010070801
1251,0.626,0.028381348,-0.011901855
1252,0.6265,0.027160645,-0.01373291
1253,0.627,0.022277832,-0.00793457
1254,0.6275,0.026855469,-0.002441406
1255,0.628,0.035095215,0.001220703
1256,0.6285,0.031433105,0.001525879
1257,0.629,0.030822754,-0.003356934
1258,0.6295,0.03326416,-0.002746582
1259,0.63,0.029602051,0.000610352
1260,0.6305,0.028686523,0.003662109
1261,0.631,0.023803711,0.008239746
1262,0.6315,0.013427734,0.009460449
1263,0.632,0.002441406,0.010986328
1264,0.6325,-0.002746582,0.012207031
1265,0.633,-0.00213623,0.012817383
1266,0.6335,0.001831055,0.016784668
1267,0.634,-0.000915527,0.015258789
1268,0.6345,-0.010070801,0.012512207
1269,0.635,-0.01373291,0.009155273
1270,0.6355,-0.020446777,0.006713867
1271,0.636,-0.027160645,0.008544922
1272,0.6365,-0.023193359,0.007019043
1273,0.637,-0.020446777,0.000915527
1274,0.6375,-0.027160645,-0.000915527
1275,0.638,-0.040283203,0.004577637
1276,0.6385,-0.039672852,0.001525879
1277,0.639,-0.032653809,-0.005493164
1278,0.6395,-0.030212402,-0.011901855
1279,0.64,-0.024719238,-0.015869141
1280,0.6405,-0.020141602,-0.016174316
1281,0.641,-0.018310547,-0.010681152
1282,0.6415,-0.01159668,-0.008239746
1283,0.642,-0.005187988,0.002746582
1284,0.6425,-0.000610352,0.006713867
1285,0.643,0.005493164,0.007324219
1286,0.6435,0.007324219,0.005493164
1287,0.644,0.010375977,0.006103516
1288,0.6445,0.011901855,0.006713867
1289,0.645,0.014038086,0.005493164
1290,0.6455,0.02166748,0.005187988
1291,0.646,0.024719238,0.011901855
1292,0.6465,0.023193359,0.010070801
1293,0.647,0.024414063,0.005187988
1294,0.6475,0.032043457,0.00213623
1295,0.648,0.036621094,0.004272461
1296,0.6485,0.028686523,0.00213623
1297,0.649,0.023498535,0.000610352
1298,0.6495,0.026550293,-0.003967285
1299,0.65,0.024719238,-0.012207031
1300,0.6505,0.019226074,-0.014648438
1301,0.651,0.015563965,-0.018920898
1302,0.6515,0.010375977,-0.022583008
1303,0.652,0.004577637,-0.021057129
1304,0.6525,0.000610352,-0.022277832
1305,0.653,-0.006103516,-0.014343262
1306,0.6535,-0.003356934,-0.008544922
1307,0.654,-0.007324219,-0.003967285
1308,0.6545,-0.010070801,0.001831055
1309,0.655,-0.010681152,0.006408691
1310,0.6555,-0.016784668,0.009460449
1311,0.656,-0.027770996,0.013122559
1312,0.6565,-0.026550293,0.008850098
1313,0.657,-0.023498535,0.002441406
1314,0.6575,-0.03112793,-0.006103516
1315,0.658,-0.040893555,-0.009155273
1316,0.6585,-0.037231445,-0.010681152
1317,0.659,-0.030517578,-0.00213623
1318,0.6595,-0.032043457,0.007019043
1319,0.66,-0.026550293,0.013427734
1320,0.6605,-0.022888184,0.008544922
1321,0.661,-0.022583008,0.00579834
1322,0.6615,-0.014953613,-0.00793457
1323,0.662,-0.008850098,-0.006713867
1324,0.6625,-0.002746582,-0.004577637
1325,0.663,0.003967285,-0.006713867
1326,0.6635,0.006103516,-0.003662109
1327,0.664,0.005187988,-0.000610352
1328,0.6645,0.006103516,0.003051758
1329,0.665,0.012512207,0.00213623
1330,0.6655,0.022277832,-0.000305176
1331,0.666,0.028076172,0.007019043
1332,0.6665,0.028076172,0.010070801
1333,0.667,0.02532959,0.004577637
1334,0.6675,0.030517578,0.007324219
1335,0.668,0.034484863,0.011901855
1336,0.6685,0.02746582,0.007324219
1337,0.669,0.024414063,0.003662109
1338,0.6695,0.026855469,0.005493164
1339,0.67,0.021972656,0.007324219
1340,0.6705,0.020141602,0.00793457
1341,0.671,0.024719238,0.004882813
1342,0.6715,0.021362305,0.003051758
1343,0.672,0.01159668,-0.001831055
1344,0.6725,0.001220703,0.000610352
1345,0.673,-0.003356934,-0.002441406
1346,0.6735,-0.007019043,-0.005187988
1347,0.674,-0.012817383,-0.004882813
1348,0.6745,-0.014038086,-0.010070801
1349,0.675,-0.016174316,-0.013122559
1350,0.6755,-0.022277832,-0.008850098
1351,0.676,-0.028076172,-0.006408691
1352,0.6765,-0.024414063,-0.00213623
1353,0.677,-0.025939941,-0.003051758
1354,0.6775,-0.034790039,-0.000610352
1355,0.678,-0.04119873,0.002441406
1356,0.6785,-0.037231445,0.004577637
1357,0.679,-0.030822754,-0.004882813
1358,0.6795,-0.032653809,-0.013122559
1359,0.68,-0.03112793,-0.015258789
1360,0.6805,-0.026855469,-0.020751953
1361,0.681,-0.023803711,-0.023498535
1362,0.6815,-0.015869141,-0.025024414
1363,0.682,-0.00579834,-0.020751953
1364,0.6825,-0.00213623,-0.003967285
1365,0.683,0.003967285,0.000915527
1366,0.6835,0.007629395,-0.003662109
1367,0.684,0.007629395,-0.004882813
1368,0.6845,0.008239746,-0.006408691
1369,0.685,0.012512207,-0.003356934
1370,0.6855,0.020446777,0.005493164
1371,0.686,0.024719238,0.008850098
1372,0.6865,0.019226074,-0.001831055
1373,0.687,0.017700195,-0.003967285
1374,0.6875,0.028076172,0.003051758
1375,0.688,0.036621094,0.009155273
1376,0.6885,0.03326416,0.012207031
1377,0.689,0.029296875,0.009765625
1378,0.6895,0.03112793,0.006713867
1379,0.69,0.027770996,0.007629395
1380,0.6905,0.023193359,0.006408691
1381,0.691,0.02166748,0.007629395
1382,0.6915,0.014648438,0.018310547
1383,0.692,0.007629395,0.007629395
1384,0.6925,0.003967285,0.001831055
1385,0.693,0.000915527,-0.003662109
1386,0.6935,-0.001220703,-0.009155273
1387,0.694,-0.002441406,-0.014953613
1388,0.6945,-0.00579834,-0.014953613
1389,0.695,-0.011291504,-0.018920898
1390,0.6955,-0.02166748,-0.02166748
1391,0.696,-0.026245117,-0.028686523
1392,0.6965,-0.024108887,-0.034179688
1393,0.697,-0.022277832,-0.030517578
1394,0.6975,-0.030212402,-0.028991699
1395,0.698,-0.036010742,-0.02532959
1396,0.6985,-0.030822754,-0.014953613
1397,0.699,-0.024719238,-0.005187988
1398,0.6995,-0.026855469,-0.000915527
1399,0.7,-0.021057129,0.012817383
1400,0.7005,-0.018310547,0.023498535
1401,0.701,-0.019836426,0.025024414
1402,0.7015,-0.012207031,0.026245117
1403,0.702,-0.001220703,0.018310547
1404,0.7025,0.005187988,0.006713867
1405,0.703,0.008850098,0.004882813
1406,0.7035,0.008850098,0.002441406
1407,0.704,0.010986328,-0.000305176
1408,0.7045,0.015258789,-0.004577637
1409,0.705,0.017089844,-0.010986328
1410,0.7055,0.022583008,-0.01373291
1411,0.706,0.025939941,-0.00793457
1412,0.7065,0.021972656,-0.00213623
1413,0.707,0.01953125,0.003662109
1414,0.7075,0.027770996,0.006103516
1415,0.708,0.039367676,0.007324219
1416,0.7085,0.032653809,0.006713867
1417,0.709,0.02532959,0.01739502
1418,0.7095,0.028381348,0.021972656
1419,0.71,0.024719238,0.014953613
1420,0.7105,0.022277832,0.009460449
1421,0.711,0.023498535,0.018615723
1422,0.7115,0.014038086,0.02746582
1423,0.712,0.004882813,0.022583008
1424,0.7125,0.002746582,0.018310547
1425,0.713,0.002441406,0.012512207
1426,0.7135,-0.001525879,0.010375977
1427,0.714,-0.010986328,0.008850098
1428,0.7145,-0.016174316,0.007324219
1429,0.715,-0.019836426,0.006713867
1430,0.7155,-0.025634766,0.004272461
1431,0.716,-0.027770996,0.006408691
1432,0.7165,-0.022277832,0.008850098
1433,0.717,-0.01953125,0.003051758
1434,0.7175,-0.029907227,-0.003967285
1435,0.718,-0.03692627,-0.009460449
1436,0.7185,-0.035705566,-0.008850098
1437,0.719,-0.029907227,-0.010375977
1438,0.7195,-0.026550293,-0.012207031
1439,0.72,-0.024414063,-0.010681152
1440,0.7205,-0.025024414,-0.009155273
1441,0.721,-0.023193359,-0.007629395
1442,0.7215,-0.016174316,-0.007629395
1443,0.722,-0.010681152,-0.012817383
1444,0.7225,-0.008239746,-0.00793457
1445,0.723,-0.003051758,-0.001525879
1446,0.7235,0.005493164,-0.000915527
1447,0.724,0.01373291,-0.001220703
1448,0.7245,0.020446777,0.004272461
1449,0.725,0.022888184,0.009765625
1450,0.7255,0.029296875,0.010070801
1451,0.726,0.03326416,0.007629395
1452,0.7265,0.03112793,0.003662109
1453,0.727,0.027770996,0.001525879
1454,0.7275,0.034179688,0.002746582
1455,0.728,0.039367676,-0.003051758
1456,0.7285,0.033874512,-0.012207031
1457,0.729,0.028381348,-0.014648438
1458,0.7295,0.028076172,-0.012817383
1459,0.73,0.025024414,-0.014343262
1460,0.7305,0.022888184,-0.012817383
1461,0.731,0.023193359,-0.009155273
1462,0.7315,0.014343262,-0.012512207
1463,0.732,0.007629395,-0.007629395
1464,0.7325,0.001831055,-0.004272461
1465,0.733,0.000305176,0.00213623
1466,0.7335,-0.003967285,0.008544922
1467,0.734,-0.010375977,0.017700195
1468,0.7345,-0.010986328,0.01739502
1469,0.735,-0.01373291,0.026550293
1470,0.7355,-0.025024414,0.023498535
1471,0.736,-0.029602051,0.025024414
1472,0.7365,-0.024414063,0.029296875
1473,0.737,-0.025024414,0.017700195
1474,0.7375,-0.035705566,0.012207031
1475,0.738,-0.043029785,0.005187988
1476,0.7385,-0.040588379,-0.004882813
1477,0.739,-0.035400391,-0.00793457
1478,0.7395,-0.032043457,-0.007324219
1479,0.74,-0.02746582,-0.007324219
1480,0.7405,-0.02532959,-0.004272461
1481,0.741,-0.021362305,0.000915527
1482,0.7415,-0.009460449,-0.000610352
1483,0.742,0.000915527,-0.008544922
1484,0.7425,0.008239746,-0.010375977
1485,0.743,0.01159668,-0.010986328
1486,0.7435,0.008850098,-0.01159668
1487,0.744,0.005493164,-0.011291504
1488,0.7445,0.007019043,-0.009460449
1489,0.745,0.009155273,-0.012207031
1490,0.7455,0.017089844,-0.014343262
1491,0.746,0.025024414,-0.007629395
1492,0.7465,0.022583008,-0.003051758
1493,0.747,0.018310547,-0.006103516
1494,0.7475,0.023498535,-0.002746582
1495,0.748,0.029907227,-0.000610352
1496,0.7485,0.028686523,0.003662109
1497,0.749,0.025634766,0.009460449
1498,0.7495,0.028381348,0.011901855
1499,0.75,0.021362305,0.011901855
1500,0.7505,0.018310547,0.002441406
1501,0.751,0.017089844,-0.009460449
1502,0.7515,0.009460449,-0.015258789
1503,0.752,0.001220703,-0.01373291
1504,0.7525,-0.003051758,-0.010375977
1505,0.753,-0.009155273,-0.012207031
1506,0.7535,-0.013427734,-0.012817383
1507,0.754,-0.017089844,-0.016479492
1508,0.7545,-0.01739502,-0.020141602
1509,0.755,-0.018920898,-0.017700195
1510,0.7555,-0.026855469,-0.017700195
1511,0.756,-0.026855469,-0.018005371
1512,0.7565,-0.025024414,-0.015869141
1513,0.757,-0.027770996,-0.015258789
1514,0.7575,-0.040893555,-0.008850098
1515,0.758,-0.045776367,-0.006408691
1516,0.7585,-0.038146973,0.003356934
1517,0.759,-0.032348633,0.01373291
1518,0.7595,-0.033874512,0.021057129
1519,0.76,-0.030212402,0.019226074
1520,0.7605,-0.028381348,0.017089844
1521,0.761,-0.027770996,0.007019043
1522,0.7615,-0.021362305,0.001220703
1523,0.762,-0.013427734,-0.001220703
1524,0.7625,-0.007019043,-0.003051758
1525,0.763,-0.000915527,-0.006713867
1526,0.7635,0.00213623,-0.015258789
1527,0.764,0.006408691,-0.018615723
1528,0.7645,0.007019043,-0.022888184
1529,0.765,0.012207031,-0.027770996
1530,0.7655,0.02166748,-0.032653809
1531,0.766,0.030517578,-0.031738281
1532,0.7665,0.030517578,-0.017700195
1533,0.767,0.024719238,-0.007629395
1534,0.7675,0.031433105,-0.00213623
1535,0.768,0.029602051,-0.000305176
1536,0.7685,0.022583008,-0.006103516
1537,0.769,0.020751953,-0.006103516
1538,0.7695,0.021362305,0.000305176
1539,0.77,0.018005371,0.003967285
1540,0.7705,0.018310547,0.008544922
1541,0.771,0.017700195,0.008850098
1542,0.7715,0.01159668,0.007324219
1543,0.772,0.005187988,0.003051758
1544,0.7725,-0.001831055,0.010375977
1545,0.773,-0.010681152,0.005187988
1546,0.7735,-0.013427734,0.00213623
1547,0.774,-0.017700195,-0.000915527
1548,0.7745,-0.023803711,-0.000305176
1549,0.775,-0.027770996,0.005187988
1550,0.7755,-0.033874512,-0.000305176
1551,0.776,-0.035705566,-0.010375977
1552,0.7765,-0.029296875,-0.012512207
1553,0.777,-0.022583008,-0.018615723
1554,0.7775,-0.032043457,-0.025634766
1555,0.778,-0.038146973,-0.026855469
1556,0.7785,-0.034484863,-0.023193359
1557,0.779,-0.03326416,-0.018310547
1558,0.7795,-0.037231445,-0.022888184
1559,0.78,-0.027160645,-0.025939941
1560,0.7805,-0.021057129,-0.022277832
1561,0.781,-0.020446777,-0.024414063
1562,0.7815,-0.014343262,-0.014038086
1563,0.782,-0.007324219,-0.00579834
1564,0.7825,-0.003967285,-0.000305176
1565,0.783,0.002441406,0.004577637
1566,0.7835,0.003051758,0.009460449
1567,0.784,0.004272461,0.009155273
1568,0.7845,0.010375977,0.019836426
1569,0.785,0.015869141,0.028991699
1570,0.7855,0.023803711,0.032958984
1571,0.786,0.02746582,0.022888184
1572,0.7865,0.023193359,0.024414063
1573,0.787,0.020751953,0.024108887
1574,0.7875,0.030822754,0.025634766
1575,0.788,0.035705566,0.020141602
1576,0.7885,0.030822754,0.011901855
1577,0.789,0.026550293,0.00579834
1578,0.7895,0.026550293,-0.006713867
1579,0.79,0.023803711,-0.013122559
1580,0.7905,0.022277832,-0.014038086
1581,0.791,0.018920898,-0.013122559
1582,0.7915,0.011291504,-0.014038086
1583,0.792,0.003967285,-0.012512207
1584,0.7925,0.0,-0.007629395
1585,0.793,-0.006713867,-0.003051758
1586,0.7935,-0.008239746,-0.003051758
1587,0.794,-0.009765625,-0.012207031
1588,0.7945,-0.011901855,-0.009765625
1589,0.795,-0.01739502,-0.009155273
1590,0.7955,-0.024108887,-0.008544922
1591,0.796,-0.028076172,-0.009460449
1592,0.7965,-0.028076172,-0.010070801
1593,0.797,-0.029602051,-0.002441406
1594,0.7975,-0.039367676,0.001831055
1595,0.798,-0.041809082,0.006713867
1596,0.7985,-0.034484863,0.005187988
1597,0.799,-0.031738281,-0.00213623
1598,0.7995,-0.032043457,-0.009765625
1599,0.8,-0.028076172,-0.008239746
1600,0.8005,-0.027770996,-0.005187988
1601,0.801,-0.026855469,-0.008239746
1602,0.8015,-0.018310547,-0.014648438
1603,0.802,-0.007324219,-0.019226074
1604,0.8025,-0.002441406,-0.02532959
1605,0.803,0.003051758,-0.02166748
1606,0.8035,0.005493164,-0.012207031
1607,0.804,0.009155273,-0.005187988
1608,0.8045,0.013122559,0.0
1609,0.805,0.017089844,0.010375977
1610,0.8055,0.024108887,0.015869141
1611,0.806,0.027160645,0.016479492
1612,0.8065,0.026550293,0.016784668
1613,0.807,0.02532959,0.013427734
1614,0.8075,0.030517578,0.009460449
1615,0.808,0.036315918,0.007019043
1616,0.8085,0.031738281,0.014343262
1617,0.809,0.030212402,0.012817383
1618,0.8095,0.032348633,0.012512207
1619,0.81,0.025939941,0.009155273
1620,0.8105,0.019836426,0.010070801
1621,0.811,0.016479492,0.006103516
1622,0.8115,0.007629395,0.000915527
1623,0.812,0.000610352,-0.003662109
1624,0.8125,0.00213623,-0.003356934
1625,0.813,-0.00213623,-0.003662109
1626,0.8135,-0.006103516,-0.00793457
1627,0.814,-0.008850098,-0.009155273
1628,0.8145,-0.006713867,-0.006103516
1629,0.815,-0.008239746,-0.010070801
1630,0.8155,-0.014343262,-0.017700195
1631,0.816,-0.01953125,-0.015563965
1632,0.8165,-0.020141602,-0.00793457
1633,0.817,-0.018920898,-0.005493164
1634,0.8175,-0.028686523,-0.000915527
1635,0.818,-0.037231445,0.00579834
1636,0.8185,-0.03112793,0.010375977
1637,0.819,-0.029296875,0.014343262
1638,0.8195,-0.030212402,0.014953613
1639,0.82,-0.022888184,0.013427734
1640,0.8205,-0.022277832,0.007019043
1641,0.821,-0.021057129,0.003051758
1642,0.8215,-0.013427734,0.000610352
1643,0.822,-0.005493164,-0.002441406
1644,0.8225,-0.000915527,-0.000915527
1645,0.823,0.005187988,0.000305176
1646,0.8235,0.00579834,0.005187988
1647,0.824,0.009765625,0.008544922
1648,0.8245,0.016174316,0.00579834
1649,0.825,0.020751953,0.011901855
1650,0.8255,0.026550293,0.015563965
1651,0.826,0.026855469,0.014953613
1652,0.8265,0.023498535,0.008239746
1653,0.827,0.023193359,0.008239746
1654,0.8275,0.033874512,0.00579834
1655,0.828,0.0390625,0.0
1656,0.8285,0.0390625,-0.010375977
1657,0.829,0.036010742,-0.020751953
1658,0.8295,0.031738281,-0.01953125
1659,0.83,0.023193359,-0.003051758
1660,0.8305,0.016784668,0.005493164
1661,0.831,0.014038086,0.00793457
1662,0.8315,0.008850098,0.007629395
1663,0.832,0.003662109,0.000305176
1664,0.8325,-0.001831055,-0.014953613
1665,0.833,-0.003662109,-0.024414063
1666,0.8335,-0.000305176,-0.027160645
1667,0.834,-0.00793457,-0.023193359
1668,0.8345,-0.01739502,-0.023193359
1669,0.835,-0.020141602,-0.02166748
1670,0.8355,-0.02746582,-0.028686523
1671,0.836,-0.028686523,-0.033569336
1672,0.8365,-0.024719238,-0.038757324
1673,0.837,-0.022277832,-0.042114258
1674,0.8375,-0.031433105,-0.040283203
1675,0.838,-0.032958984,-0.029602051
1676,0.8385,-0.026550293,-0.014648438
1677,0.839,-0.02532959,-0.004272461
1678,0.8395,-0.027160645,0.001831055
1679,0.84,-0.019226074,0.005187988
1680,0.8405,-0.014343262,0.014648438
1681,0.841,-0.015869141,0.028076172
1682,0.8415,-0.010375977,0.034790039
1683,0.842,-0.007019043,0.034179688
1684,0.8425,-0.000610352,0.024414063
1685,0.843,0.004882813,0.018310547
1686,0.8435,0.005187988,0.016174316
1687,0.844,0.007629395,0.014343262
1688,0.8445,0.01373291,0.015563965
1689,0.845,0.021057129,0.012817383
1690,0.8455,0.030822754,0.014648438
1691,0.846,0.03112793,0.008850098
1692,0.8465,0.026245117,0.003051758
1693,0.847,0.022888184,0.000610352
1694,0.8475,0.032043457,0.004882813
1695,0.848,0.035095215,0.00579834
1696,0.8485,0.027770996,0.004882813
1697,0.849,0.02532959,0.002746582
1698,0.8495,0.030517578,0.002441406
1699,0.85,0.02746582,0.001831055
1700,0.8505,0.025634766,0.001831055
1701,0.851,0.020446777,0.000610352
1702,0.8515,0.015563965,-0.004577637
1703,0.852,0.009460449,-0.001525879
1704,0.8525,0.003662109,0.002746582
1705,0.853,-0.004577637,0.005187988
1706,0.8535,-0.008239746,0.008850098
1707,0.854,-0.01159668,0.010375977
1708,0.8545,-0.011291504,0.008544922
1709,0.855,-0.012207031,0.010681152
1710,0.8555,-0.020141602,0.01373291
1711,0.856,-0.028991699,0.010375977
1712,0.8565,-0.028381348,0.005493164
1713,0.857,-0.025024414,-0.001220703
1714,0.8575,-0.033874512,-0.007629395
1715,0.858,-0.037536621,-0.013427734
1716,0.8585,-0.035095215,-0.015563965
1717,0.859,-0.03326416,-0.017089844
1718,0.8595,-0.031738281,-0.01739502
1719,0.86,-0.026550293,-0.01373291
1720,0.8605,-0.023803711,-0.016174316
1721,0.861,-0.018615723,-0.01953125
1722,0.8615,-0.008239746,-0.021362305
1723,0.862,0.00213623,-0.015563965
1724,0.8625,0.008239746,-0.009765625
1725,0.863,0.012817383,-0.005187988
1726,0.8635,0.007324219,-0.00213623
1727,0.864,0.007629395,0.003356934
1728,0.8645,0.016479492,0.00579834
1729,0.865,0.022888184,0.009460449
1730,0.8655,0.024719238,0.00793457
1731,0.866,0.023803711,0.006713867
1732,0.8665,0.020446777,0.001525879
1733,0.867,0.018005371,-0.005493164
1734,0.8675,0.025024414,-0.004882813
1735,0.868,0.02746582,-0.011291504
1736,0.8685,0.023803711,-0.014953613
1737,0.869,0.024108887,-0.017089844
1738,0.8695,0.026245117,-0.014953613
1739,0.87,0.027770996,-0.013122559
1740,0.8705,0.03112793,-0.014343262
1741,0.871,0.028076172,-0.01739502
1742,0.8715,0.020446777,-0.011291504
1743,0.872,0.010070801,0.0
1744,0.8725,0.000610352,0.008544922
1745,0.873,-0.00579834,0.012207031
1746,0.8735,-0.010070801,0.008850098
1747,0.874,-0.01159668,0.005493164
1748,0.8745,-0.010070801,0.002746582
1749,0.875,-0.015563965,0.010070801
1750,0.8755,-0.026245117,0.015563965
1751,0.876,-0.029907227,0.007629395
1752,0.8765,-0.023803711,-0.005493164
1753,0.877,-0.022583008,-0.00579834
1754,0.8775,-0.030212402,-0.004882813
1755,0.878,-0.036621094,-0.008544922
1756,0.8785,-0.031738281,-0.004882813
1757,0.879,-0.026855469,-0.000610352
1758,0.8795,-0.02532959,-0.009460449
1759,0.88,-0.022583008,-0.011901855
1760,0.8805,-0.023803711,-0.018920898
1761,0.881,-0.025024414,-0.02746582
1762,0.8815,-0.017089844,-0.034790039
1763,0.882,-0.009460449,-0.029296875
1764,0.8825,-0.004577637,-0.018005371
1765,0.883,-0.001220703,-0.014038086
1766,0.8835,-0.000610352,-0.00579834
1767,0.884,0.004882813,-0.003051758
1768,0.8845,0.01373291,-0.000915527
1769,0.885,0.020751953,0.006408691
1770,0.8855,0.026550293,0.00793457
1771,0.886,0.026550293,0.007629395
1772,0.8865,0.021362305,0.021057129
1773,0.887,0.021972656,0.023498535
1774,0.8875,0.030517578,0.020141602
1775,0.888,0.034179688,0.020141602
1776,0.8885,0.028686523,0.016174316
1777,0.889,0.028076172,0.008239746
1778,0.8895,0.031738281,-0.000305176
1779,0.89,0.026855469,-0.001831055
1780,0.8905,0.023498535,-0.004577637
1781,0.891,0.018920898,-0.012512207
1782,0.8915,0.011291504,-0.007324219
1783,0.892,0.003051758,-0.000610352
1784,0.8925,-0.000305176,0.0
1785,0.893,-0.005493164,-0.002441406
1786,0.8935,-0.007629395,-0.004882813
1787,0.894,-0.012207031,-0.005493164
1788,0.8945,-0.012207031,0.002746582
1789,0.895,-0.014648438,0.014038086
1790,0.8955,-0.024108887,0.016174316
1791,0.896,-0.030517578,0.010375977
1792,0.8965,-0.025939941,0.008239746
1793,0.897,-0.026245117,0.003967285
1794,0.8975,-0.036315918,-0.003356934
1795,0.898,-0.040893555,-0.001831055
1796,0.8985,-0.033569336,-0.000305176
1797,0.899,-0.026245117,-0.000610352
1798,0.8995,-0.028381348,0.000610352
1799,0.9,-0.026550293,-0.000610352
1800,0.9005,-0.026550293,-0.000915527
1801,0.901,-0.024108887,-0.002441406
1802,0.9015,-0.010681152,-0.003356934
1803,0.902,0.0,-0.003356934
1804,0.9025,0.002746582,-0.008850098
1805,0.903,0.003662109,-0.007629395
1806,0.9035,0.002746582,-0.004272461
1807,0.904,0.007629395,-0.002441406
1808,0.9045,0.011901855,-0.001831055
1809,0.905,0.015563965,-0.001220703
1810,0.9055,0.026855469,0.008544922
1811,0.906,0.03112793,0.012512207
1812,0.9065,0.028991699,0.002746582
1813,0.907,0.024108887,0.002746582
1814,0.9075,0.032348633,-0.001831055
1815,0.908,0.036010742,-0.004882813
1816,0.9085,0.030517578,-0.000305176
1817,0.909,0.02746582,0.0
1818,0.9095,0.027160645,0.001525879
1819,0.91,0.023803711,-0.000305176
1820,0.9105,0.020446777,0.000610352
1821,0.911,0.018310547,0.0
1822,0.9115,0.012512207,0.014648438
1823,0.912,0.010986328,0.01739502
1824,0.9125,0.010681152,0.030822754
1825,0.913,0.004882813,0.042724609
1826,0.9135,0.001525879,0.045166016
1827,0.914,-0.001831055,0.047302246
1828,0.9145,-0.003662109,0.043945313
1829,0.915,-0.011901855,0.039978027
1830,0.9155,-0.023498535,0.037231445
1831,0.916,-0.031738281,0.024719238
1832,0.9165,-0.027770996,0.001525879
1833,0.917,-0.025634766,-0.021362305
1834,0.9175,-0.033874512,-0.032348633
1835,0.918,-0.037231445,-0.038757324
1836,0.9185,-0.029907227,-0.042419434
1837,0.919,-0.028381348,-0.045776367
1838,0.9195,-0.03112793,-0.035705566
1839,0.92,-0.025634766,-0.028076172
1840,0.9205,-0.024414063,-0.022583008
1841,0.921,-0.026245117,-0.018920898
1842,0.9215,-0.016174316,-0.011901855
1843,0.922,-0.00793457,-0.006408691
1844,0.9225,-0.004882813,-0.004272461
1845,0.923,-0.000610352,-0.007019043
1846,0.9235,0.003356934,-0.008239746
1847,0.924,0.007629395,-0.005187988
1848,0.9245,0.010986328,-0.003662109
1849,0.925,0.016784668,-0.004577637
1850,0.9255,0.024108887,-0.003356934
1851,0.926,0.025634766,-0.00793457
1852,0.9265,0.022277832,-0.006103516
1853,0.927,0.021362305,-0.006713867
1854,0.9275,0.032043457,0.000610352
1855,0.928,0.03326416,0.003967285
1856,0.9285,0.027770996,0.001525879
1857,0.929,0.022277832,0.000915527
1858,0.9295,0.02532959,0.003356934
1859,0.93,0.023193359,0.008239746
1860,0.9305,0.020141602,0.014343262
1861,0.931,0.020141602,0.015258789
1862,0.9315,0.015563965,0.003356934
1863,0.932,0.010986328,-0.006408691
1864,0.9325,0.00579834,-0.008850098
1865,0.933,-0.00213623,-0.00793457
1866,0.9335,-0.007324219,-0.003662109
1867,0.934,-0.012512207,-0.003356934
1868,0.9345,-0.014953613,-0.009460449
1869,0.935,-0.018615723,-0.012512207
1870,0.9355,-0.030212402,-0.014648438
1871,0.936,-0.031433105,-0.014343262
1872,0.9365,-0.02746582,-0.012817383
1873,0.937,-0.025634766,-0.01373291
1874,0.9375,-0.034179688,-0.013122559
1875,0.938,-0.039978027,-0.014038086
1876,0.9385,-0.03692627,-0.013122559
1877,0.939,-0.033569336,-0.006103516
1878,0.9395,-0.028991699,-0.006713867
1879,0.94,-0.022583008,-0.006103516
1880,0.9405,-0.023193359,-0.004882813
1881,0.941,-0.023498535,-0.001220703
1882,0.9415,-0.010070801,0.003356934
1883,0.942,-0.003967285,0.014038086
1884,0.9425,-0.001220703,0.023193359
1885,0.943,0.005493164,0.026245117
1886,0.9435,0.011901855,0.028991699
1887,0.944,0.016479492,0.026245117
1888,0.9445,0.014648438,0.022888184
1889,0.945,0.014953613,0.018310547
1890,0.9455,0.024414063,0.01953125
1891,0.946,0.027770996,0.022583008
1892,0.9465,0.020141602,0.02532959
1893,0.947,0.016174316,0.022583008
1894,0.9475,0.028381348,0.021057129
1895,0.948,0.03326416,0.011291504
1896,0.9485,0.026550293,-0.000915527
1897,0.949,0.025634766,-0.009155273
1898,0.9495,0.02746582,-0.014038086
1899,0.95,0.023803711,-0.019836426
1900,0.9505,0.02166748,-0.015258789
1901,0.951,0.019836426,-0.009155273
1902,0.9515,0.012512207,0.003051758
1903,0.952,0.002441406,0.007629395
1904,0.9525,-0.001220703,0.016174316
1905,0.953,-0.002746582,0.022583008
1906,0.9535,-0.005187988,0.022888184
1907,0.954,-0.01159668,0.018920898
1908,0.9545,-0.013427734,0.013122559
1909,0.955,-0.017089844,0.009765625
1910,0.9555,-0.029296875,0.007019043
1911,0.956,-0.034179688,0.006103516
1912,0.9565,-0.031433105,0.008239746
1913,0.957,-0.024719238,0.012512207
1914,0.9575,-0.031738281,0.015258789
1915,0.958,-0.03326416,0.00793457
1916,0.9585,-0.025939941,0.000305176
1917,0.959,-0.022583008,-0.006408691
1918,0.9595,-0.022888184,-0.014343262
1919,0.96,-0.019836426,-0.016174316
1920,0.9605,-0.024414063,-0.025939941
1921,0.961,-0.022277832,-0.03326416
1922,0.9615,-0.012512207,-0.032043457
1923,0.962,-0.005187988,-0.034179688
1924,0.9625,-0.001831055,-0.040893555
1925,0.963,0.004882813,-0.036621094
1926,0.9635,0.004577637,-0.02746582
1927,0.964,0.006713867,-0.013122559
1928,0.9645,0.010375977,-0.011901855
1929,0.965,0.016784668,-0.001220703
1930,0.9655,0.025634766,0.006103516
1931,0.966,0.029602051,0.016479492
1932,0.9665,0.02746582,0.020751953
1933,0.967,0.024414063,0.026245117
1934,0.9675,0.03326416,0.024108887
1935,0.968,0.033569336,0.018005371
1936,0.9685,0.028686523,0.010375977
1937,0.969,0.025939941,0.001831055
1938,0.9695,0.02746582,0.001831055
1939,0.97,0.022277832,-0.001831055
1940,0.9705,0.021972656,-0.015869141
1941,0.971,0.021362305,-0.021362305
1942,0.9715,0.011901855,-0.015563965
1943,0.972,0.005493164,-0.010681152
1944,0.9725,-0.000610352,-0.007629395
1945,0.973,-0.007019043,-0.006408691
1946,0.9735,-0.008850098,-0.006103516
1947,0.974,-0.010681152,-0.006408691
1948,0.9745,-0.011291504,0.001831055
1949,0.975,-0.012817383,0.010375977
1950,0.9755,-0.021057129,0.017089844
1951,0.976,-0.023193359,0.018310547
1952,0.9765,-0.020751953,0.018310547
1953,0.977,-0.019226074,0.017089844
1954,0.9775,-0.031433105,0.013427734
1955,0.978,-0.034790039,0.011901855
1956,0.9785,-0.032653809,0.012512207
1957,0.979,-0.030822754,0.008544922
1958,0.9795,-0.031433105,-0.000610352
1959,0.98,-0.028381348,-0.006103516
1960,0.9805,-0.024719238,-0.013427734
1961,0.981,-0.019836426,-0.018920898
1962,0.9815,-0.008850098,-0.016784668
1963,0.982,-0.00213623,-0.015869141
1964,0.9825,0.001831055,-0.014953613
1965,0.983,0.00793457,-0.018615723
1966,0.9835,0.005187988,-0.019836426
1967,0.984,0.004272461,-0.017089844
1968,0.9845,0.006103516,-0.018920898
1969,0.985,0.01373291,-0.013427734
1970,0.9855,0.023193359,-0.008544922
1971,0.986,0.024108887,-0.000915527
1972,0.9865,0.01953125,0.002746582
1973,0.987,0.016784668,0.008850098
1974,0.9875,0.026245117,0.021362305
1975,0.988,0.029602051,0.027160645
1976,0.9885,0.027160645,0.025939941
1977,0.989,0.028076172,0.026550293
1978,0.9895,0.028381348,0.025024414
1979,0.99,0.023498535,0.020751953
1980,0.9905,0.021972656,0.016479492
1981,0.991,0.020751953,0.016479492
1982,0.9915,0.011901855,0.01373291
1983,0.992,0.004272461,0.004577637
1984,0.9925,0.001525879,0.001220703
1985,0.993,-0.002441406,0.004272461
1986,0.9935,-0.006103516,0.004272461
1987,0.994,-0.011901855,0.006103516
1988,0.9945,-0.014343262,0.002441406
1989,0.995,-0.016174316,0.000610352
1990,0.9955,-0.023498535,-0.006713867
1991,0.996,-0.025939941,-0.007629395
1992,0.9965,-0.024108887,-0.008544922
1993,0.997,-0.021972656,-0.009765625
1994,0.9975,-0.034484863,-0.010681152
1995,0.998,-0.039978027,-0.010375977
1996,0.9985,-0.035095215,-0.013427734
1997,0.999,-0.033569336,-0.012207031
1998,0.9995,-0.035095215,-0.015563965
1999,1.0,-0.028381348,-0.014343262
2000,1.0005,-0.02532959,-0.01159668
2001,1.001,-0.023193359,-0.004272461
2002,1.0015,-0.011901855,-0.002441406
2003,1.002,-0.003051758,-0.010070801
2004,1.0025,0.000610352,-0.019836426
2005,1.003,0.00213623,-0.02746582
2006,1.0035,0.005187988,-0.033874512
2007,1.004,0.009155273,-0.040893555
2008,1.0045,0.010986328,-0.034484863
2009,1.005,0.013122559,-0.027160645
2010,1.0055,0.02166748,-0.018920898
2011,1.006,0.026550293,-0.008239746
2012,1.0065,0.021972656,0.002746582
2013,1.007,0.020751953,0.008850098
2014,1.0075,0.03326416,0.020751953
2015,1.008,0.039367676,0.03326416
2016,1.0085,0.03692627,0.030212402
2017,1.009,0.039672852,0.021972656
2018,1.0095,0.034484863,0.022277832
2019,1.01,0.018920898,0.018615723
2020,1.0105,0.015258789,0.015563965
2021,1.011,0.014343262,0.004272461
2022,1.0115,0.008850098,-0.004577637
2023,1.012,0.003051758,0.002441406
2024,1.0125,-0.002441406,0.005493164
2025,1.013,-0.009155273,0.000305176
2026,1.0135,-0.010070801,-0.001525879
2027,1.014,-0.012512207,0.000610352
2028,1.0145,-0.01373291,0.003051758
2029,1.015,-0.019226074,0.004882813
2030,1.0155,-0.025024414,0.007324219
2031,1.016,-0.021972656,0.009765625
2032,1.0165,-0.01953125,0.010375977
2033,1.017,-0.021972656,0.007324219
2034,1.0175,-0.03326416,0.002441406
2035,1.018,-0.036621094,0.002441406
2036,1.0185,-0.03326416,0.003356934
2037,1.019,-0.030822754,0.001220703
2038,1.0195,-0.030517578,0.0
2039,1.02,-0.024719238,-0.009765625
2040,1.0205,-0.025024414,-0.01373291
2041,1.021,-0.025939941,-0.010681152
2042,1.0215,-0.016784668,0.003356934
2043,1.022,-0.004577637,0.015258789
2044,1.0225,0.004882813,0.01739502
2045,1.023,0.014343262,0.016784668
2046,1.0235,0.012512207,0.012207031
2047,1.024,0.012512207,0.008239746
2048,1.0245,0.01373291,0.007019043
2049,1.025,0.014953613,0.008239746
2050,1.0255,0.024108887,0.00579834
2051,1.026,0.026855469,0.00793457
2052,1.0265,0.021972656,0.003051758
2053,1.027,0.021972656,-0.00213623
2054,1.0275,0.030822754,-0.000305176
2055,1.028,0.034790039,-0.001525879
2056,1.0285,0.028381348,-0.001220703
2057,1.029,0.025939941,-0.002746582
2058,1.0295,0.029907227,-0.007019043
2059,1.03,0.025024414,-0.007019043
2060,1.0305,0.01739502,0.000305176
2061,1.031,0.011291504,0.001220703
2062,1.0315,0.004882813,-0.010681152
2063,1.032,-0.000610352,-0.016479492
2064,1.0325,-0.000305176,-0.018615723
2065,1.033,-0.004882813,-0.020141602
2066,1.0335,-0.00579834,-0.015563965
2067,1.034,-0.006103516,-0.008544922
2068,1.0345,-0.009155273,-0.000915527
2069,1.035,-0.013427734,0.001220703
2070,1.0355,-0.021057129,0.001220703
2071,1.036,-0.025024414,0.01159668
2072,1.0365,-0.025024414,0.011291504
2073,1.037,-0.028381348,0.010375977
2074,1.0375,-0.03692627,0.003356934
2075,1.038,-0.036010742,-0.002746582
2076,1.0385,-0.029296875,0.000305176
2077,1.039,-0.024719238,-0.002441406
2078,1.0395,-0.028686523,-0.009155273
2079,1.04,-0.025024414,-0.019836426
2080,1.0405,-0.025939941,-0.027160645
2081,1.041,-0.025634766,-0.034484863
2082,1.0415,-0.01953125,-0.041503906
2083,1.042,-0.012512207,-0.034790039
2084,1.0425,-0.004272461,-0.028076172
2085,1.043,0.004882813,-0.026855469
2086,1.0435,0.005493164,-0.017700195
2087,1.044,0.010986328,-0.008239746
2088,1.0445,0.019226074,0.0
2089,1.045,0.02746582,0.009155273
2090,1.0455,0.032043457,0.017089844
2091,1.046,0.028686523,0.016784668
2092,1.0465,0.020446777,0.01739502
2093,1.047,0.021057129,0.016174316
2094,1.0475,0.031433105,0.017089844
2095,1.048,0.029296875,0.002746582
2096,1.0485,0.024108887,-0.008544922
2097,1.049,0.026245117,-0.006103516
2098,1.0495,0.030822754,-0.012207031
2099,1.05,0.027770996,-0.013427734
2100,1.0505,0.026245117,-0.015258789
2101,1.051,0.02166748,-0.013122559
2102,1.0515,0.008239746,-0.014038086
2103,1.052,0.003051758,-0.018615723
2104,1.0525,0.001525879,-0.010375977
2105,1.053,-0.003051758,-0.005187988
2106,1.0535,-0.00793457,0.007324219
2107,1.054,-0.010681152,0.008850098
2108,1.0545,-0.011291504,0.001220703
2109,1.055,-0.012817383,-0.001220703
2110,1.0555,-0.023803711,-0.013122559
2111,1.056,-0.02532959,-0.016784668
2112,1.0565,-0.023193359,-0.010986328
2113,1.057,-0.02166748,-0.004882813
2114,1.0575,-0.035400391,0.000915527
2115,1.058,-0.040283203,0.007629395
2116,1.0585,-0.035705566,0.012207031
2117,1.059,-0.030517578,0.020141602
2118,1.0595,-0.031738281,0.025634766
2119,1.06,-0.026855469,0.025939941
2120,1.0605,-0.023498535,0.028991699
2121,1.061,-0.02166748,0.025939941
2122,1.0615,-0.014343262,0.021972656
2123,1.062,-0.00579834,0.016479492
2124,1.0625,-0.000610352,0.007324219
2125,1.063,0.00579834,0.007019043
2126,1.0635,0.006713867,0.012207031
2127,1.064,0.008239746,0.009765625
2128,1.0645,0.014038086,0.002441406
2129,1.065,0.019226074,-0.00579834
2130,1.0655,0.028686523,-0.009155273
2131,1.066,0.030212402,-0.014038086
2132,1.0665,0.028381348,-0.022888184
2133,1.067,0.02746582,-0.01953125
2134,1.0675,0.038757324,-0.009155273
2135,1.068,0.039672852,-0.002441406
2136,1.0685,0.031433105,0.000915527
2137,1.069,0.029602051,0.009460449
2138,1.0695,0.032958984,0.019836426
2139,1.07,0.028991699,0.027160645
2140,1.0705,0.026550293,0.032958984
2141,1.071,0.023193359,0.033569336
2142,1.0715,0.016174316,0.032348633
2143,1.072,0.010681152,0.029907227
2144,1.0725,0.00793457,0.028076172
2145,1.073,0.002441406,0.024108887
2146,1.0735,-0.006408691,0.015869141
2147,1.074,-0.011291504,0.004882813
2148,1.0745,-0.010375977,-0.000610352
2149,1.075,-0.014343262,-0.006713867
2150,1.0755,-0.02166748,-0.016784668
2151,1.076,-0.024719238,-0.024108887
2152,1.0765,-0.022888184,-0.029602051
2153,1.077,-0.022277832,-0.02532959
2154,1.0775,-0.031738281,-0.022583008
2155,1.078,-0.032348633,-0.01953125
2156,1.0785,-0.025024414,-0.016784668
2157,1.079,-0.017700195,-0.001220703
2158,1.0795,-0.017089844,0.008850098
2159,1.08,-0.014648438,0.013122559
2160,1.0805,-0.016174316,0.014648438
2161,1.081,-0.014953613,0.008239746
2162,1.0815,-0.006408691,0.009765625
2163,1.082,0.002746582,0.012512207
2164,1.0825,0.012207031,0.018005371
2165,1.083,0.021362305,0.01953125
2166,1.0835,0.023498535,0.024108887
2167,1.084,0.025634766,0.019836426
2168,1.0845,0.026550293,0.016174316
2169,1.085,0.029602051,0.013427734
2170,1.0855,0.034790039,0.010070801
2171,1.086,0.033569336,0.008544922
2172,1.0865,0.026550293,0.00793457
2173,1.087,0.024719238,0.010681152
2174,1.0875,0.040283203,0.011901855
2175,1.088,0.045776367,0.012512207
2176,1.0885,0.038757324,0.01159668
2177,1.089,0.036010742,0.00579834
2178,1.0895,0.0390625,0.002441406
2179,1.09,0.036621094,0.000610352
2180,1.0905,0.038452148,-0.000305176
2181,1.091,0.034484863,-0.00213623
2182,1.0915,0.017700195,-0.000915527
2183,1.092,0.006103516,-0.00213623
2184,1.0925,0.003356934,-0.005493164
2185,1.093,0.004272461,-0.005187988
2186,1.0935,0.001831055,-0.007324219
2187,1.094,-0.001525879,-0.01373291
2188,1.0945,-0.004577637,-0.010681152
2189,1.095,-0.010070801,-0.004882813
2190,1.0955,-0.018310547,-0.000915527
2191,1.096,-0.018615723,0.010070801
2192,1.0965,-0.012512207,0.024414063
2193,1.097,-0.013122559,0.02532959
2194,1.0975,-0.023498535,0.026245117
2195,1.098,-0.024414063,0.03112793
2196,1.0985,-0.018615723,0.028991699
2197,1.099,-0.015869141,0.018005371
2198,1.0995,-0.018310547,0.010681152
2199,1.1,-0.012207031,0.000915527
2200,1.1005,-0.012817383,-0.001220703
2201,1.101,-0.010986328,-0.006713867
2202,1.1015,-0.00213623,-0.011901855
2203,1.102,0.004882813,-0.014343262
2204,1.1025,0.009155273,-0.010986328
2205,1.103,0.013122559,-0.002441406
2206,1.1035,0.015869141,0.006713867
2207,1.104,0.018615723,0.009765625
2208,1.1045,0.02166748,0.01373291
2209,1.105,0.02532959,0.023193359
2210,1.1055,0.032043457,0.023193359
2211,1.106,0.034179688,0.027770996
2212,1.1065,0.029907227,0.035400391
2213,1.107,0.028991699,0.034179688
2214,1.1075,0.040588379,0.040893555
2215,1.108,0.046386719,0.038146973
2216,1.1085,0.039672852,0.03326416
2217,1.109,0.036010742,0.030517578
2218,1.1095,0.036621094,0.024108887
2219,1.11,0.030212402,0.019836426
2220,1.1105,0.028076172,0.016479492
2221,1.111,0.023803711,0.020141602
2222,1.1115,0.014343262,0.018920898
2223,1.112,0.007629395,0.023803711
2224,1.1125,0.007019043,0.022583008
2225,1.113,0.006713867,0.016479492
2226,1.1135,0.003967285,0.009155273
2227,1.114,-0.001831055,0.007324219
2228,1.1145,-0.008239746,0.00793457
2229,1.115,-0.014648438,0.003967285
2230,1.1155,-0.024414063,-0.004577637
2231,1.116,-0.028076172,-0.011291504
2232,1.1165,-0.025939941,-0.011291504
2233,1.117,-0.024719238,-0.009155273
2234,1.1175,-0.032653809,-0.006103516
2235,1.118,-0.035095215,-0.006408691
2236,1.1185,-0.028381348,-0.004272461
2237,1.119,-0.026550293,-0.003356934
2238,1.1195,-0.025634766,0.00213623
2239,1.12,-0.021057129,0.019226074
2240,1.1205,-0.01953125,0.028381348
2241,1.121,-0.018310547,0.034484863
2242,1.1215,-0.007019043,0.029602051
2243,1.122,0.003662109,0.018310547
2244,1.1225,0.007629395,0.00579834
2245,1.123,0.010986328,0.002441406
2246,1.1235,0.010375977,0.004577637
2247,1.124,0.014953613,0.001220703
2248,1.1245,0.019226074,-0.002441406
2249,1.125,0.022277832,-0.003356934
2250,1.1255,0.030212402,-0.00579834
2251,1.126,0.034179688,-0.000915527
2252,1.1265,0.029602051,0.004272461
2253,1.127,0.028076172,0.005187988
2254,1.1275,0.037841797,0.004882813
2255,1.128,0.037841797,0.012512207
2256,1.1285,0.034179688,0.020751953
2257,1.129,0.031738281,0.02532959
2258,1.1295,0.032958984,0.025939941
2259,1.13,0.026855469,0.027160645
2260,1.1305,0.027160645,0.030212402
2261,1.131,0.023193359,0.033874512
2262,1.1315,0.012817383,0.034790039
2263,1.132,0.002441406,0.027160645
2264,1.1325,-0.000610352,0.020446777
2265,1.133,-0.003662109,0.01159668
2266,1.1335,-0.000305176,0.000915527
2267,1.134,0.002441406,-0.010070801
2268,1.1345,-0.007629395,-0.020751953
2269,1.135,-0.014953613,-0.023803711
2270,1.1355,-0.018615723,-0.02746582
2271,1.136,-0.021362305,-0.029602051
2272,1.1365,-0.023803711,-0.026855469
2273,1.137,-0.024719238,-0.015563965
2274,1.1375,-0.035400391,-0.013122559
2275,1.138,-0.03326416,-0.007019043
2276,1.1385,-0.028381348,-0.006713867
2277,1.139,-0.027770996,-0.003051758
2278,1.1395,-0.02746582,-0.001220703
2279,1.14,-0.018310547,-0.003051758
2280,1.1405,-0.018005371,-0.005187988
2281,1.141,-0.015563965,-0.006103516
2282,1.1415,-0.005493164,-0.003662109
2283,1.142,-0.00213623,-0.004882813
2284,1.1425,0.001525879,-0.000610352
2285,1.143,0.009765625,0.003051758
2286,1.1435,0.014038086,0.001831055
2287,1.144,0.014953613,0.010681152
2288,1.1445,0.014648438,0.010986328
2289,1.145,0.019226074,0.019226074
2290,1.1455,0.027160645,0.01739502
2291,1.146,0.030822754,0.016479492
2292,1.1465,0.027770996,0.012512207
2293,1.147,0.028686523,0.015258789
2294,1.1475,0.037231445,0.018615723
2295,1.148,0.0390625,0.020446777
2296,1.1485,0.036010742,0.015869141
2297,1.149,0.034484863,0.007324219
2298,1.1495,0.030822754,-0.000610352
2299,1.15,0.023193359,-0.006408691
2300,1.1505,0.018310547,-0.010681152
2301,1.151,0.015258789,-0.012817383
2302,1.1515,0.005187988,-0.006408691
2303,1.152,-0.000915527,0.00213623
2304,1.1525,-0.000610352,0.003967285
2305,1.153,-0.003051758,0.000305176
2306,1.1535,-0.004272461,-0.005493164
2307,1.154,-0.009155273,-0.007629395
2308,1.1545,-0.012207031,-0.012512207
2309,1.155,-0.019836426,-0.018310547
2310,1.1555,-0.030822754,-0.020751953
2311,1.156,-0.026855469,-0.016174316
2312,1.1565,-0.018920898,-0.014953613
2313,1.157,-0.017089844,-0.019836426
2314,1.1575,-0.028686523,-0.015258789
2315,1.158,-0.027160645,-0.007629395
2316,1.1585,-0.021057129,0.003356934
2317,1.159,-0.022583008,0.008850098
2318,1.1595,-0.027770996,0.006408691
2319,1.16,-0.024414063,0.004577637
2320,1.1605,-0.022888184,0.003356934
2321,1.161,-0.020141602,0.006103516
2322,1.1615,-0.011901855,0.004882813
2323,1.162,-0.006103516,0.003662109
2324,1.1625,0.003051758,0.002441406
2325,1.163,0.009155273,-0.000305176
2326,1.1635,0.010986328,-0.004577637
2327,1.164,0.014953613,-0.007324219
2328,1.1645,0.016174316,-0.011901855
2329,1.165,0.018310547,-0.01159668
2330,1.1655,0.026245117,-0.010375977
2331,1.166,0.029602051,-0.006103516
2332,1.1665,0.025634766,-0.001220703
2333,1.167,0.023498535,0.004577637
2334,1.1675,0.032958984,0.014953613
2335,1.168,0.029907227,0.020751953
2336,1.1685,0.025634766,0.020751953
2337,1.169,0.02746582,0.008850098
2338,1.1695,0.036010742,-0.00213623
2339,1.17,0.030212402,-0.003051758
2340,1.1705,0.025634766,-0.000915527
2341,1.171,0.022888184,-0.000915527
2342,1.1715,0.014648438,0.00579834
2343,1.172,0.004272461,0.009460449
2344,1.1725,-0.003662109,0.009765625
2345,1.173,-0.010681152,0.003051758
2346,1.1735,-0.010375977,0.003051758
2347,1.174,-0.010375977,-0.000610352
2348,1.1745,-0.010681152,0.012817383
2349,1.175,-0.016479492,0.019836426
2350,1.1755,-0.026550293,0.011291504
2351,1.176,-0.028686523,0.010681152
2352,1.1765,-0.028686523,0.014343262
2353,1.177,-0.028381348,0.013122559
2354,1.1775,-0.039367676,0.007019043
2355,1.178,-0.035705566,0.003967285
2356,1.1785,-0.029602051,0.006103516
2357,1.179,-0.03326416,0.003051758
2358,1.1795,-0.034790039,0.001220703
2359,1.18,-0.026855469,0.004882813
2360,1.1805,-0.023498535,0.002746582
2361,1.181,-0.01953125,-0.005187988
2362,1.1815,-0.006713867,-0.003356934
2363,1.182,0.000915527,-0.003662109
2364,1.1825,0.000610352,-0.006408691
2365,1.183,0.001525879,-0.006103516
2366,1.1835,0.000915527,0.003051758
2367,1.184,0.004882813,0.008239746
2368,1.1845,0.009460449,0.01159668
2369,1.185,0.018005371,0.012207031
2370,1.1855,0.026550293,0.014343262
2371,1.186,0.026550293,0.017700195
2372,1.1865,0.023193359,0.014038086
2373,1.187,0.02166748,0.017089844
2374,1.1875,0.032958984,0.016479492
2375,1.188,0.034484863,0.012817383
2376,1.1885,0.028686523,0.00793457
2377,1.189,0.026855469,0.009155273
2378,1.1895,0.028381348,0.001525879
2379,1.19,0.020446777,-0.004577637
2380,1.1905,0.021057129,-0.007324219
2381,1.191,0.022583008,-0.007324219
2382,1.1915,0.01373291,-0.016174316
2383,1.192,0.00579834,-0.022277832
2384,1.1925,-0.000610352,-0.018920898
2385,1.193,-0.003662109,-0.018005371
2386,1.1935,-0.004882813,-0.022888184
2387,1.194,-0.009155273,-0.025939941
2388,1.1945,-0.011901855,-0.021362305
2389,1.195,-0.01739502,-0.021972656
2390,1.1955,-0.022888184,-0.015869141
2391,1.196,-0.024108887,-0.009765625
2392,1.1965,-0.025634766,-0.004882813
2393,1.197,-0.028381348,-0.004272461
2394,1.1975,-0.039367676,-0.003356934
2395,1.198,-0.036315918,-0.001831055
2396,1.1985,-0.030517578,-0.001831055
2397,1.199,-0.028991699,0.003967285
2398,1.1995,-0.030212402,0.010681152
2399,1.2,-0.023803711,0.010070801
2400,1.2005,-0.025634766,0.007629395
2401,1.201,-0.022277832,-0.00579834
2402,1.2015,-0.005493164,-0.003051758
2403,1.202,-0.000305176,-0.001525879
2404,1.2025,0.00213623,-0.001220703
2405,1.203,0.007629395,-0.003967285
2406,1.2035,0.00579834,-0.009765625
2407,1.204,0.003356934,-0.006713867
2408,1.2045,0.008239746,-0.004577637
2409,1.205,0.016784668,0.002746582
2410,1.2055,0.028076172,0.003662109
2411,1.206,0.03112793,-0.003967285
2412,1.2065,0.030517578,-0.005187988
2413,1.207,0.028381348,-0.000915527
2414,1.2075,0.037231445,-0.001220703
2415,1.208,0.033874512,-0.01159668
2416,1.2085,0.027770996,-0.01953125
2417,1.209,0.028991699,-0.015869141
2418,1.2095,0.028381348,-0.007629395
2419,1.21,0.022277832,-0.00793457
2420,1.2105,0.021972656,-0.004272461
2421,1.211,0.019836426,0.000915527
2422,1.2115,0.010375977,0.00793457
2423,1.212,0.002441406,0.007629395
2424,1.2125,0.000610352,0.004577637
2425,1.213,-0.001220703,0.002441406
2426,1.2135,-0.007019043,0.001831055
2427,1.214,-0.010986328,0.006103516
2428,1.2145,-0.011901855,0.002746582
2429,1.215,-0.018615723,-0.001220703
2430,1.2155,-0.030212402,-0.002746582
2431,1.216,-0.03326416,-0.001831055
2432,1.2165,-0.028686523,0.000610352
2433,1.217,-0.028076172,0.002746582
2434,1.2175,-0.037231445,-0.002746582
2435,1.218,-0.036315918,-0.003662109
2436,1.2185,-0.029602051,-0.001220703
2437,1.219,-0.024719238,-0.000915527
2438,1.2195,-0.022277832,-0.002746582
2439,1.22,-0.020446777,-0.007019043
2440,1.2205,-0.02166748,-0.017089844
2441,1.221,-0.01739502,-0.022277832
2442,1.2215,-0.008850098,-0.025939941
2443,1.222,-0.004577637,-0.028076172
2444,1.2225,-0.001220703,-0.032653809
2445,1.223,0.002746582,-0.024719238
2446,1.2235,0.004882813,-0.014953613
2447,1.224,0.015258789,-0.007019043
2448,1.2245,0.022277832,0.010375977
2449,1.225,0.022583008,0.027160645
2450,1.2255,0.026855469,0.035705566
2451,1.226,0.023498535,0.040283203
2452,1.2265,0.020141602,0.041809082
2453,1.227,0.025939941,0.034179688
2454,1.2275,0.041809082,0.031433105
2455,1.228,0.039978027,0.029907227
2456,1.2285,0.030822754,0.023193359
2457,1.229,0.022277832,0.017700195
2458,1.2295,0.023498535,0.016784668
2459,1.23,0.01953125,0.015563965
2460,1.2305,0.022277832,0.006408691
2461,1.231,0.022277832,-0.007324219
2462,1.2315,0.014953613,-0.013122559
2463,1.232,0.00579834,-0.012817383
2464,1.2325,0.002441406,-0.014953613
2465,1.233,-0.003356934,-0.014038086
2466,1.2335,-0.007324219,-0.015258789
2467,1.234,-0.013122559,-0.013122559
2468,1.2345,-0.016479492,-0.012512207
2469,1.235,-0.020446777,-0.010070801
2470,1.2355,-0.026245117,-0.004272461
2471,1.236,-0.025634766,0.002746582
2472,1.2365,-0.02166748,0.009155273
2473,1.237,-0.023498535,0.00213623
2474,1.2375,-0.039367676,-0.015869141
2475,1.238,-0.045471191,-0.030212402
2476,1.2385,-0.038452148,-0.032043457
2477,1.239,-0.03112793,-0.032043457
2478,1.2395,-0.026550293,-0.02532959
2479,1.24,-0.01953125,-0.017700195
2480,1.2405,-0.022277832,-0.00793457
2481,1.241,-0.021972656,-0.008544922
2482,1.2415,-0.013122559,-0.017700195
2483,1.242,-0.004577637,-0.018615723
2484,1.2425,0.000610352,-0.023498535
2485,1.243,0.004882813,-0.025634766
2486,1.2435,0.006713867,-0.02746582
2487,1.244,0.008544922,-0.022888184
2488,1.2445,0.012817383,-0.022277832
2489,1.245,0.018310547,-0.01953125
2490,1.2455,0.02532959,-0.006408691
2491,1.246,0.024108887,-0.000610352
2492,1.2465,0.020446777,-0.002746582
2493,1.247,0.021362305,0.003356934
2494,1.2475,0.035705566,0.007324219
2495,1.248,0.038757324,0.009765625
2496,1.2485,0.032653809,0.013427734
2497,1.249,0.030822754,0.021972656
2498,1.2495,0.030517578,0.023193359
2499,1.25,0.02532959,0.01953125
2500,1.2505,0.021972656,0.019226074
2501,1.251,0.018310547,0.015869141
2502,1.2515,0.011291504,0.01159668
2503,1.252,0.002441406,0.011901855
2504,1.2525,-0.00213623,0.007324219
2505,1.253,-0.007019043,0.006103516
2506,1.2535,-0.007324219,0.003967285
2507,1.254,-0.009765625,0.003356934
2508,1.2545,-0.01159668,0.002441406
2509,1.255,-0.018310547,0.0
2510,1.2555,-0.028381348,-0.005493164
2511,1.256,-0.028381348,-0.011291504
2512,1.2565,-0.02746582,-0.014953613
2513,1.257,-0.028076172,-0.019836426
2514,1.2575,-0.038452148,-0.027770996
2515,1.258,-0.038452148,-0.028991699
2516,1.2585,-0.029602051,-0.014953613
2517,1.259,-0.028381348,0.000305176
2518,1.2595,-0.030212402,0.010681152
2519,1.26,-0.023498535,0.02166748
2520,1.2605,-0.02166748,0.02166748
2521,1.261,-0.019226074,0.01953125
2522,1.2615,-0.012817383,0.019836426
2523,1.262,-0.009765625,0.016174316
2524,1.2625,-0.003967285,0.006408691
2525,1.263,0.001831055,-0.007019043
2526,1.2635,0.003967285,-0.020141602
2527,1.264,0.009765625,-0.021972656
2528,1.2645,0.014648438,-0.024108887
2529,1.265,0.019226074,-0.024719238
2530,1.2655,0.026550293,-0.028381348
2531,1.266,0.025634766,-0.028991699
2532,1.2665,0.020751953,-0.023803711
2533,1.267,0.023803711,-0.007324219
2534,1.2675,0.034484863,0.005493164
2535,1.268,0.032958984,0.003662109
2536,1.2685,0.030212402,0.002746582
2537,1.269,0.028991699,0.007629395
2538,1.2695,0.027770996,0.021972656
2539,1.27,0.021362305,0.032958984
2540,1.2705,0.019836426,0.039978027
2541,1.271,0.016784668,0.032348633
2542,1.2715,0.009765625,0.019226074
2543,1.272,0.005187988,0.00793457
2544,1.2725,0.000610352,0.004882813
2545,1.273,-0.00579834,-0.001525879
2546,1.2735,-0.009155273,-0.004882813
2547,1.274,-0.014343262,-0.004882813
2548,1.2745,-0.016174316,-0.008850098
2549,1.275,-0.020446777,-0.015258789
2550,1.2755,-0.029907227,-0.014648438
2551,1.276,-0.030212402,-0.014038086
2552,1.2765,-0.023498535,-0.014648438
2553,1.277,-0.023193359,-0.008544922
2554,1.2775,-0.03326416,-0.002441406
2555,1.278,-0.034790039,0.000915527
2556,1.2785,-0.028076172,0.008850098
2557,1.279,-0.029602051,0.009765625
2558,1.2795,-0.03112793,0.00793457
2559,1.28,-0.028076172,0.00213623
2560,1.2805,-0.02746582,0.003051758
2561,1.281,-0.023498535,-0.000610352
2562,1.2815,-0.010681152,0.000610352
2563,1.282,-0.006408691,-0.005187988
2564,1.2825,-0.003356934,-0.014038086
2565,1.283,0.000915527,-0.023193359
2566,1.2835,0.003356934,-0.023803711
2567,1.284,0.007629395,-0.019836426
2568,1.2845,0.012512207,-0.018920898
2569,1.285,0.022888184,-0.020751953
2570,1.2855,0.028381348,-0.008239746
2571,1.286,0.026245117,0.000915527
2572,1.2865,0.023803711,0.008850098
2573,1.287,0.026855469,0.020141602
2574,1.2875,0.036621094,0.030822754
2575,1.288,0.03326416,0.034790039
2576,1.2885,0.024108887,0.031433105
2577,1.289,0.023803711,0.03326416
2578,1.2895,0.025939941,0.031738281
2579,1.29,0.022277832,0.020141602
2580,1.2905,0.021057129,0.015869141
2581,1.291,0.020141602,0.014648438
2582,1.2915,0.01159668,0.012817383
2583,1.292,0.006408691,0.008239746
2584,1.2925,0.005187988,0.007324219
2585,1.293,0.0,0.000305176
2586,1.2935,-0.004272461,0.003051758
2587,1.294,-0.008544922,0.005187988
2588,1.2945,-0.014343262,0.002441406
2589,1.295,-0.019226074,-0.003051758
2590,1.2955,-0.028686523,-0.001220703
2591,1.296,-0.030517578,0.000305176
2592,1.2965,-0.027160645,-0.001525879
2593,1.297,-0.025024414,-0.00213623
2594,1.2975,-0.034179688,-0.010375977
2595,1.298,-0.034484863,-0.007019043
2596,1.2985,-0.029296875,-0.003051758
2597,1.299,-0.026245117,0.000305176
2598,1.2995,-0.025024414,-0.000610352
2599,1.3,-0.023803711,0.004882813
2600,1.3005,-0.023498535,0.003662109
2601,1.301,-0.017700195,0.001831055
2602,1.3015,-0.005493164,0.001831055
2603,1.302,0.000915527,-0.000915527
2604,1.3025,0.005187988,-0.00213623
2605,1.303,0.006713867,-0.001220703
2606,1.3035,0.00793457,0.003967285
2607,1.304,0.009155273,0.007629395
2608,1.3045,0.010070801,0.007019043
2609,1.305,0.018615723,0.002441406
2610,1.3055,0.031738281,0.000305176
2611,1.306,0.029296875,-0.004577637
2612,1.3065,0.022583008,-0.008239746
2613,1.307,0.018310547,-0.014343262
2614,1.3075,0.030517578,-0.014038086
2615,1.308,0.029907227,-0.014648438
2616,1.3085,0.022888184,-0.019836426
2617,1.309,0.020446777,-0.02166748
2618,1.3095,0.023193359,-0.022888184
2619,1.31,0.022888184,-0.027160645
2620,1.3105,0.024108887,-0.025939941
2621,1.311,0.018615723,-0.028076172
2622,1.3115,0.009460449,-0.028686523
2623,1.312,-0.000610352,-0.021972656
2624,1.3125,-0.003356934,-0.015869141
2625,1.313,-0.010070801,-0.010681152
2626,1.3135,-0.01159668,0.000610352
2627,1.314,-0.011901855,0.014038086
2628,1.3145,-0.015563965,0.014953613
2629,1.315,-0.020751953,0.012207031
2630,1.3155,-0.030822754,0.003662109
2631,1.316,-0.029602051,-0.000915527
2632,1.3165,-0.025939941,0.004577637
2633,1.317,-0.025939941,0.007629395
2634,1.3175,-0.033874512,0.007629395
2635,1.318,-0.03112793,0.013122559
2636,1.3185,-0.02532959,0.015563965
2637,1.319,-0.025939941,0.012207031
2638,1.3195,-0.027160645,0.006408691
2639,1.32,-0.022277832,0.008239746
2640,1.3205,-0.024719238,0.010375977
2641,1.321,-0.022888184,0.010070801
2642,1.3215,-0.012512207,0.009460449
2643,1.322,-0.004577637,0.006713867
2644,1.3225,0.001525879,0.006713867
2645,1.323,0.003051758,0.003356934
2646,1.3235,0.006408691,-0.002441406
2647,1.324,0.010681152,-0.002746582
2648,1.3245,0.015869141,0.003051758
2649,1.325,0.024108887,0.004577637
2650,1.3255,0.03112793,0.000915527
2651,1.326,0.030212402,-0.005493164
2652,1.3265,0.024108887,-0.004272461
2653,1.327,0.021362305,-0.00213623
2654,1.3275,0.031738281,0.003662109
2655,1.328,0.033569336,0.009765625
2656,1.3285,0.028991699,0.009155273
2657,1.329,0.026855469,0.007629395
2658,1.3295,0.025939941,0.002441406
2659,1.33,0.019836426,-0.004272461
2660,1.3305,0.023498535,-0.002441406
2661,1.331,0.026245117,-0.002441406
2662,1.3315,0.017700195,0.000915527
2663,1.332,0.004577637,0.000915527
2664,1.3325,-0.003662109,0.000305176
2665,1.333,-0.004577637,-0.002441406
2666,1.3335,-0.003662109,-0.010681152
2667,1.334,-0.006103516,-0.014343262
2668,1.3345,-0.008239746,-0.021057129
2669,1.335,-0.015258789,-0.026245117
2670,1.3355,-0.02532959,-0.026855469
2671,1.336,-0.026245117,-0.026855469
2672,1.3365,-0.024414063,-0.020446777
2673,1.337,-0.028381348,-0.013427734
2674,1.3375,-0.038757324,-0.000305176
2675,1.338,-0.03326416,0.00793457
2676,1.3385,-0.026245117,0.015258789
2677,1.339,-0.02532959,0.016479492
2678,1.3395,-0.02532959,0.012207031
2679,1.34,-0.021972656,0.019836426
2680,1.3405,-0.021057129,0.026245117
2681,1.341,-0.017700195,0.02532959
2682,1.3415,-0.010986328,0.028076172
2683,1.342,-0.006713867,0.030822754
2684,1.3425,-0.000610352,0.034790039
2685,1.343,0.006408691,0.030517578
2686,1.3435,0.008850098,0.027160645
2687,1.344,0.010681152,0.020751953
2688,1.3445,0.01373291,0.007019043
2689,1.345,0.018615723,-0.01159668
2690,1.3455,0.023803711,-0.024719238
2691,1.346,0.025939941,-0.023803711
2692,1.3465,0.028686523,-0.026855469
2693,1.347,0.031738281,-0.018920898
2694,1.3475,0.040588379,-0.014343262
2695,1.348,0.043334961,-0.020751953
2696,1.3485,0.039978027,-0.021057129
2697,1.349,0.038146973,-0.012512207
2698,1.3495,0.03692627,-0.006408691
2699,1.35,0.028686523,0.001525879
2700,1.3505,0.020751953,0.003662109
2701,1.351,0.013122559,0.006713867
2702,1.3515,0.002441406,0.00579834
2703,1.352,-0.003051758,0.010070801
2704,1.3525,-0.003356934,0.009460449
2705,1.353,-0.004882813,0.010070801
2706,1.3535,-0.006103516,0.007324219
2707,1.354,-0.010375977,0.010375977
2708,1.3545,-0.014038086,0.011291504
2709,1.355,-0.01739502,0.009765625
2710,1.3555,-0.028381348,-0.00213623
2711,1.356,-0.028686523,-0.008544922
2712,1.3565,-0.024108887,-0.017700195
2713,1.357,-0.022277832,-0.020141602
2714,1.3575,-0.038452148,-0.024414063
2715,1.358,-0.0390625,-0.027770996
2716,1.3585,-0.035400391,-0.027770996
2717,1.359,-0.032348633,-0.025939941
2718,1.3595,-0.026855469,-0.023498535
2719,1.36,-0.018310547,-0.022583008
2720,1.3605,-0.021362305,-0.020446777
2721,1.361,-0.019226074,-0.027160645
2722,1.3615,-0.008850098,-0.024414063
2723,1.362,-0.00579834,-0.020446777
2724,1.3625,-0.002441406,-0.013122559
2725,1.363,0.003051758,-0.009765625
2726,1.3635,0.003662109,-0.016174316
2727,1.364,0.00793457,-0.009765625
2728,1.3645,0.009460449,-0.012512207
2729,1.365,0.015258789,-0.008850098
2730,1.3655,0.022583008,0.004577637
2731,1.366,0.025024414,0.009765625
2732,1.3665,0.023498535,0.017700195
2733,1.367,0.02746582,0.020446777
2734,1.3675,0.038757324,0.018920898
2735,1.368,0.036315918,0.018615723
2736,1.3685,0.030822754,0.017089844
2737,1.369,0.02746582,0.011901855
2738,1.3695,0.026855469,0.014953613
2739,1.37,0.022888184,0.015869141
2740,1.3705,0.024414063,0.014953613
2741,1.371,0.024719238,0.01159668
2742,1.3715,0.016174316,-0.001831055
2743,1.372,0.005187988,-0.009765625
2744,1.3725,0.0,-0.006103516
2745,1.373,-0.002746582,-0.003356934
2746,1.3735,-0.003662109,0.006408691
2747,1.374,-0.006408691,0.01373291
2748,1.3745,-0.008850098,0.018615723
2749,1.375,-0.016174316,0.02166748
2750,1.3755,-0.027160645,0.024414063
2751,1.376,-0.027770996,0.024414063
2752,1.3765,-0.023803711,0.024108887
2753,1.377,-0.023193359,0.01953125
2754,1.3775,-0.032653809,0.010681152
2755,1.378,-0.028686523,0.002441406
2756,1.3785,-0.02166748,-0.002746582
2757,1.379,-0.021057129,-0.002441406
2758,1.3795,-0.02532959,-0.006713867
2759,1.38,-0.026855469,-0.010070801
2760,1.3805,-0.027770996,-0.011901855
2761,1.381,-0.021362305,-0.005493164
2762,1.3815,-0.010375977,0.003356934
2763,1.382,-0.001831055,0.010070801
2764,1.3825,0.003662109,0.014648438
2765,1.383,0.006713867,0.018615723
2766,1.3835,0.005187988,0.019836426
2767,1.384,0.008239746,0.014953613
2768,1.3845,0.012207031,0.009765625
2769,1.385,0.01953125,-0.003051758
2770,1.3855,0.02532959,-0.00793457
2771,1.386,0.023498535,-0.020751953
2772,1.3865,0.023498535,-0.020141602
2773,1.387,0.024719238,-0.015258789
2774,1.3875,0.037536621,-0.002746582
2775,1.388,0.038757324,0.005187988
2776,1.3885,0.031433105,0.016784668
2777,1.389,0.029907227,0.023803711
2778,1.3895,0.029907227,0.01739502
2779,1.39,0.026550293,0.006713867
2780,1.3905,0.022888184,-0.003967285
2781,1.391,0.017700195,-0.015563965
2782,1.3915,0.008544922,-0.015869141
2783,1.392,0.001220703,-0.02166748
2784,1.3925,-0.000305176,-0.018615723
2785,1.393,-0.00213623,-0.015869141
2786,1.3935,-0.010986328,-0.020446777
2787,1.394,-0.015258789,-0.021362305
2788,1.3945,-0.015258789,-0.022277832
2789,1.395,-0.020141602,-0.021057129
2790,1.3955,-0.026550293,-0.015869141
2791,1.396,-0.024719238,-0.01373291
2792,1.3965,-0.021972656,-0.016174316
2793,1.397,-0.026245117,-0.011901855
2794,1.3975,-0.042724609,-0.008239746
2795,1.398,-0.042419434,-0.003662109
2796,1.3985,-0.035095215,0.003051758
2797,1.399,-0.031738281,-0.003051758
2798,1.3995,-0.031738281,-0.010681152
2799,1.4,-0.026245117,-0.016479492
2800,1.4005,-0.024108887,-0.022583008
2801,1.401,-0.019836426,-0.010986328
2802,1.4015,-0.008239746,0.001220703
2803,1.402,-0.001831055,0.005187988
2804,1.4025,-0.001525879,0.003356934
2805,1.403,0.002441406,-0.000305176
2806,1.4035,0.006103516,0.009155273
2807,1.404,0.009765625,0.01953125
2808,1.4045,0.015563965,0.023498535
2809,1.405,0.021972656,0.024414063
2810,1.4055,0.031433105,0.021057129
2811,1.406,0.030517578,0.01373291
2812,1.4065,0.023498535,0.012512207
2813,1.407,0.025024414,0.013122559
2814,1.4075,0.034179688,0.009460449
2815,1.408,0.034790039,0.008544922
2816,1.4085,0.030822754,0.006713867
2817,1.409,0.026245117,0.003967285
2818,1.4095,0.025024414,0.000915527
2819,1.41,0.021362305,-0.001525879
2820,1.4105,0.022888184,-0.004272461
2821,1.411,0.01739502,-0.001831055
2822,1.4115,0.006408691,-0.000305176
2823,1.412,-0.001220703,0.0
2824,1.4125,-0.004577637,0.000915527
2825,1.413,-0.007019043,-0.003356934
2826,1.4135,-0.008850098,-0.009765625
2827,1.414,-0.012207031,-0.021057129
2828,1.4145,-0.01739502,-0.025939941
2829,1.415,-0.021057129,-0.02532959
2830,1.4155,-0.027770996,-0.03112793
2831,1.416,-0.02532959,-0.033874512
2832,1.4165,-0.022277832,-0.032348633
2833,1.417,-0.026550293,-0.027770996
2834,1.4175,-0.036010742,-0.025024414
2835,1.418,-0.036315918,-0.014038086
2836,1.4185,-0.032348633,0.000610352
2837,1.419,-0.030517578,0.014038086
2838,1.4195,-0.027770996,0.022277832
2839,1.42,-0.021972656,0.02746582
2840,1.4205,-0.024108887,0.032348633
2841,1.421,-0.021362305,0.040893555
2842,1.4215,-0.00793457,0.047302246
2843,1.422,-0.000915527,0.040588379
2844,1.4225,0.005187988,0.02746582
2845,1.423,0.008544922,0.023193359
2846,1.4235,0.008239746,0.020751953
2847,1.424,0.010986328,0.014038086
2848,1.4245,0.014953613,-0.002746582
2849,1.425,0.018005371,-0.007629395
2850,1.4255,0.02746582,-0.003662109
2851,1.426,0.030822754,-0.004882813
2852,1.4265,0.026855469,-0.007019043
2853,1.427,0.025939941,-0.007629395
2854,1.4275,0.035400391,-0.005493164
2855,1.428,0.034790039,-0.010375977
2856,1.4285,0.027160645,-0.010375977
2857,1.429,0.02746582,-0.010375977
2858,1.4295,0.030822754,-0.006103516
2859,1.43,0.03112793,-0.005187988
2860,1.4305,0.028076172,-0.002746582
2861,1.431,0.021057129,0.001831055
2862,1.4315,0.010681152,0.002746582
2863,1.432,0.002746582,0.001831055
2864,1.4325,-0.003967285,-0.003051758
2865,1.433,-0.00793457,-0.008850098
2866,1.4335,-0.009155273,-0.011291504
2867,1.434,-0.01159668,-0.008544922
2868,1.4345,-0.012512207,-0.008850098
2869,1.435,-0.01739502,-0.00793457
2870,1.4355,-0.025939941,-0.00793457
2871,1.436,-0.026550293,-0.008239746
2872,1.4365,-0.023193359,-0.007019043
2873,1.437,-0.024108887,-0.003662109
2874,1.4375,-0.035705566,0.003662109
2875,1.438,-0.031433105,0.001220703
2876,1.4385,-0.025939941,-0.000610352
2877,1.439,-0.027770996,-0.013122559
2878,1.4395,-0.028076172,-0.019836426
2879,1.44,-0.026550293,-0.021362305
2880,1.4405,-0.026245117,-0.01159668
2881,1.441,-0.024719238,-0.01159668
2882,1.4415,-0.012207031,-0.004272461
2883,1.442,-0.001831055,0.008850098
2884,1.4425,0.008544922,0.017700195
2885,1.443,0.015869141,0.02746582
2886,1.4435,0.016174316,0.033874512
2887,1.444,0.016479492,0.036621094
2888,1.4445,0.020446777,0.025939941
2889,1.445,0.024719238,0.01739502
2890,1.4455,0.032348633,0.020446777
2891,1.446,0.028991699,0.018920898
2892,1.4465,0.025939941,0.01159668
2893,1.447,0.028991699,0.006408691
2894,1.4475,0.039672852,0.009765625
2895,1.448,0.039672852,0.00579834
2896,1.4485,0.035705566,0.002746582
2897,1.449,0.032958984,-0.010375977
2898,1.4495,0.031433105,-0.021362305
2899,1.45,0.026855469,-0.025939941
2900,1.4505,0.022583008,-0.020751953
2901,1.451,0.01739502,-0.014343262
2902,1.4515,0.007019043,-0.007019043
2903,1.452,0.001220703,-0.006713867
2904,1.4525,0.0,-0.003051758
2905,1.453,-0.004882813,0.000610352
2906,1.4535,-0.00793457,0.00213623
2907,1.454,-0.01159668,0.006713867
2908,1.4545,-0.016174316,0.001525879
2909,1.455,-0.022277832,-0.002746582
2910,1.4555,-0.027770996,-0.00793457
2911,1.456,-0.024414063,-0.012817383
2912,1.4565,-0.01739502,-0.020141602
2913,1.457,-0.017700195,-0.023193359
2914,1.4575,-0.028686523,-0.024719238
2915,1.458,-0.026550293,-0.02532959
2916,1.4585,-0.02532959,-0.024414063
2917,1.459,-0.03112793,-0.021057129
2918,1.4595,-0.030212402,-0.015869141
2919,1.46,-0.023803711,-0.012512207
2920,1.4605,-0.024719238,-0.010986328
2921,1.461,-0.019226074,-0.009155273
2922,1.4615,-0.008544922,-0.00213623
2923,1.462,-0.000915527,0.004577637
2924,1.4625,0.00213623,0.008239746
2925,1.463,0.006713867,-0.001220703
2926,1.4635,0.007324219,-0.005187988
2927,1.464,0.009155273,-0.000610352
2928,1.4645,0.012207031,0.001525879
2929,1.465,0.018920898,0.000915527
2930,1.4655,0.026245117,-0.003662109
2931,1.466,0.025939941,-0.005493164
2932,1.4665,0.022583008,0.001525879
2933,1.467,0.025024414,0.007629395
2934,1.4675,0.035400391,0.014038086
2935,1.468,0.035095215,0.013427734
2936,1.4685,0.029907227,0.011291504
2937,1.469,0.027160645,0.016479492
2938,1.4695,0.025634766,0.016784668
2939,1.47,0.024414063,0.008850098
2940,1.4705,0.025939941,0.003662109
2941,1.471,0.018920898,-0.00213623
2942,1.4715,0.007629395,-0.004577637
2943,1.472,0.001831055,-0.006103516
2944,1.4725,0.000915527,-0.00213623
2945,1.473,-0.004272461,0.002441406
2946,1.4735,-0.008850098,0.003967285
2947,1.474,-0.010681152,-0.000915527
2948,1.4745,-0.011901855,-0.005187988
2949,1.475,-0.015563965,-0.004577637
2950,1.4755,-0.022888184,-0.000610352
2951,1.476,-0.021057129,0.003051758
2952,1.4765,-0.015563965,0.003662109
2953,1.477,-0.021972656,-0.001831055
2954,1.4775,-0.0390625,-0.003356934
2955,1.478,-0.038146973,-0.007019043
2956,1.4785,-0.030212402,-0.003967285
2957,1.479,-0.027160645,-0.010070801
2958,1.4795,-0.023193359,-0.015258789
2959,1.48,-0.018920898,-0.007324219
2960,1.4805,-0.021362305,-0.001220703
2961,1.481,-0.017089844,0.003051758
2962,1.4815,-0.009765625,-0.000305176
2963,1.482,-0.003967285,-0.008544922
2964,1.4825,0.000305176,-0.020751953
2965,1.483,0.00579834,-0.024108887
2966,1.4835,0.009765625,-0.017700195
2967,1.484,0.016174316,-0.016479492
2968,1.4845,0.01739502,-0.008850098
2969,1.485,0.021972656,-0.001525879
2970,1.4855,0.028381348,0.000915527
2971,1.486,0.025024414,0.004882813
2972,1.4865,0.022583008,0.014953613
2973,1.487,0.025634766,0.02166748
2974,1.4875,0.034790039,0.02746582
2975,1.488,0.03326416,0.028991699
2976,1.4885,0.024719238,0.027160645
2977,1.489,0.023193359,0.028686523
2978,1.4895,0.024719238,0.027770996
2979,1.49,0.021972656,0.025024414
2980,1.4905,0.02166748,0.019226074
2981,1.491,0.022277832,0.012512207
2982,1.4915,0.014343262,0.008239746
2983,1.492,0.003356934,0.002441406
2984,1.4925,-0.003356934,-0.005187988
2985,1.493,-0.005493164,-0.010681152
2986,1.4935,-0.006713867,-0.020446777
2987,1.494,-0.008544922,-0.019836426
2988,1.4945,-0.011901855,-0.028686523
2989,1.495,-0.018615723,-0.039978027
2990,1.4955,-0.030212402,-0.049438477
2991,1.496,-0.02746582,-0.039672852
2992,1.4965,-0.02166748,-0.027160645
2993,1.497,-0.023803711,-0.015258789
2994,1.4975,-0.034790039,-0.002441406
2995,1.498,-0.035095215,0.008544922
2996,1.4985,-0.028686523,0.018310547
2997,1.499,-0.025939941,0.018615723
2998,1.4995,-0.024108887,0.01159668
2999,1.5,-0.022277832,0.006103516
3000,1.5005,-0.024414063,0.001220703
3001,1.501,-0.016479492,0.006103516
3002,1.5015,-0.003051758,0.007324219
3003,1.502,0.00213623,0.002441406
3004,1.5025,0.003662109,0.000915527
3005,1.503,0.006713867,-0.000915527
3006,1.5035,0.005493164,-0.003662109
3007,1.504,0.007324219,-0.004882813
3008,1.5045,0.013427734,-0.00579834
3009,1.505,0.023193359,-0.006408691
3010,1.5055,0.036010742,-0.004272461
3011,1.506,0.036315918,-0.004272461
3012,1.5065,0.031738281,-0.010070801
3013,1.507,0.03112793,-0.007324219
3014,1.5075,0.039978027,-0.003967285
3015,1.508,0.034484863,-0.006103516
3016,1.5085,0.029602051,-0.001220703
3017,1.509,0.031433105,0.010986328
3018,1.5095,0.030517578,0.011291504
3019,1.51,0.024719238,0.012817383
3020,1.5105,0.021972656,0.006713867
3021,1.511,0.018005371,-0.000305176
3022,1.5115,0.010986328,-0.007324219
3023,1.512,0.004882813,-0.011901855
3024,1.5125,0.001220703,-0.015869141
3025,1.513,-0.000305176,-0.020446777
3026,1.5135,-0.004577637,-0.02166748
3027,1.514,-0.008850098,-0.022583008
3028,1.5145,-0.010681152,-0.024719238
3029,1.515,-0.015869141,-0.02532959
3030,1.5155,-0.02532959,-0.018310547
3031,1.516,-0.027160645,-0.00579834
3032,1.5165,-0.022277832,0.004882813
3033,1.517,-0.026245117,0.005187988
3034,1.5175,-0.033569336,0.001220703
3035,1.518,-0.026550293,-0.000305176
3036,1.5185,-0.020446777,-0.001525879
3037,1.519,-0.023498535,-0.009460449
3038,1.5195,-0.02746582,-0.019836426
3039,1.52,-0.022888184,-0.028076172
3040,1.5205,-0.022583008,-0.034179688
3041,1.521,-0.018920898,-0.02746582
3042,1.5215,-0.011291504,-0.025939941
3043,1.522,-0.002746582,-0.03326416
3044,1.5225,0.001831055,-0.030517578
3045,1.523,0.006103516,-0.01953125
3046,1.5235,0.00579834,-0.004272461
3047,1.524,0.009460449,0.013122559
3048,1.5245,0.018005371,0.021972656
3049,1.525,0.022888184,0.02532959
3050,1.5255,0.031738281,0.020141602
3051,1.526,0.032653809,0.010375977
3052,1.5265,0.035400391,0.006713867
3053,1.527,0.036010742,0.010681152
3054,1.5275,0.035095215,0.023193359
3055,1.528,0.027770996,0.02746582
3056,1.5285,0.020141602,0.03112793
3057,1.529,0.019836426,0.037231445
3058,1.5295,0.021972656,0.037536621
3059,1.53,0.021057129,0.030822754
3060,1.5305,0.021362305,0.020751953
3061,1.531,0.018615723,0.01159668
3062,1.5315,0.01159668,0.003662109
3063,1.532,0.001525879,0.000305176
3064,1.5325,-0.005187988,-0.003967285
3065,1.533,-0.009155273,-0.007629395
3066,1.5335,-0.012817383,-0.009765625
3067,1.534,-0.015258789,-0.012512207
3068,1.5345,-0.018615723,-0.01739502
3069,1.535,-0.020446777,-0.017089844
3070,1.5355,-0.027160645,-0.016784668
3071,1.536,-0.026550293,-0.013122559
3072,1.5365,-0.024414063,-0.011291504
3073,1.537,-0.02746582,-0.010070801
3074,1.5375,-0.0390625,-0.016479492
3075,1.538,-0.037841797,-0.018310547
3076,1.5385,-0.030822754,-0.017089844
3077,1.539,-0.03112793,-0.015258789
3078,1.5395,-0.030212402,-0.009460449
3079,1.54,-0.025024414,-0.004577637
3080,1.5405,-0.025939941,0.002746582
3081,1.541,-0.019836426,0.008544922
3082,1.5415,-0.007324219,0.014648438
3083,1.542,0.001525879,0.018310547
3084,1.5425,0.006713867,0.006713867
3085,1.543,0.00793457,-0.003051758
3086,1.5435,0.009155273,-0.009460449
3087,1.544,0.012207031,-0.006408691
3088,1.5445,0.01739502,-0.000305176
3089,1.545,0.023803711,-0.008544922
3090,1.5455,0.032348633,-0.004577637
3091,1.546,0.028686523,-0.006408691
3092,1.5465,0.024414063,-0.018920898
3093,1.547,0.024719238,-0.024414063
3094,1.5475,0.035705566,-0.025024414
3095,1.548,0.034179688,-0.023193359
3096,1.5485,0.03112793,-0.015563965
3097,1.549,0.030517578,-0.010375977
3098,1.5495,0.029602051,0.003356934
3099,1.55,0.02532959,0.008544922
3100,1.5505,0.025024414,0.022277832
3101,1.551,0.019226074,0.021972656
3102,1.5515,0.009155273,0.021362305
3103,1.552,0.004882813,0.018005371
3104,1.5525,0.002441406,0.016479492
3105,1.553,-0.003356934,0.012512207
3106,1.5535,-0.009155273,0.007324219
3107,1.554,-0.01373291,0.003662109
3108,1.5545,-0.014953613,0.001220703
3109,1.555,-0.018310547,-0.006713867
3110,1.5555,-0.024719238,-0.014648438
3111,1.556,-0.022583008,-0.019226074
3112,1.5565,-0.02166748,-0.021972656
3113,1.557,-0.025939941,-0.019836426
3114,1.5575,-0.036010742,-0.020446777
3115,1.558,-0.037536621,-0.013427734
3116,1.5585,-0.032348633,-0.014343262
3117,1.559,-0.029296875,-0.000610352
3118,1.5595,-0.030212402,0.000305176
3119,1.56,-0.027160645,0.004577637
3120,1.5605,-0.026245117,0.019226074
3121,1.561,-0.01953125,0.023193359
3122,1.5615,-0.007629395,0.022888184
3123,1.562,-0.000610352,0.020751953
3124,1.5625,0.003662109,0.024108887
3125,1.563,0.008239746,0.020141602
3126,1.5635,0.007629395,0.006408691
3127,1.564,0.010681152,0.008544922
3128,1.5645,0.014648438,0.013122559
3129,1.565,0.02166748,0.009155273
3130,1.5655,0.028381348,0.006103516
3131,1.566,0.029296875,-0.002441406
3132,1.5665,0.028686523,-0.000610352
3133,1.567,0.030822754,-0.00213623
3134,1.5675,0.038146973,-0.003051758
3135,1.568,0.035705566,-0.003662109
3136,1.5685,0.032043457,-0.007019043
3137,1.569,0.030212402,-0.00793457
3138,1.5695,0.023803711,-0.005187988
3139,1.57,0.017089844,-0.004272461
3140,1.5705,0.017700195,-0.000610352
3141,1.571,0.018005371,0.000305176
3142,1.5715,0.009765625,0.002441406
3143,1.572,0.003356934,-0.001525879
3144,1.5725,-0.000610352,-0.010375977
3145,1.573,-0.005187988,-0.014343262
3146,1.5735,-0.009155273,-0.015258789
3147,1.574,-0.011291504,-0.012512207
3148,1.5745,-0.016784668,-0.01373291
3149,1.575,-0.023803711,-0.016784668
3150,1.5755,-0.031433105,-0.014953613
3151,1.576,-0.030212402,-0.016479492
3152,1.5765,-0.02746582,-0.015563965
3153,1.577,-0.029907227,-0.024108887
3154,1.5775,-0.039367676,-0.02746582
3155,1.578,-0.038146973,-0.028076172
3156,1.5785,-0.030822754,-0.014648438
3157,1.579,-0.029602051,-0.005187988
3158,1.5795,-0.02746582,-0.004577637
3159,1.58,-0.024108887,-0.003662109
3160,1.5805,-0.024414063,-0.004577637
3161,1.581,-0.021057129,-0.01159668
3162,1.5815,-0.010070801,-0.014648438
3163,1.582,-0.004577637,-0.02166748
3164,1.5825,0.003356934,-0.019836426
3165,1.583,0.005493164,-0.00793457
3166,1.5835,0.007324219,-0.003967285
3167,1.584,0.009155273,-0.007019043
3168,1.5845,0.012817383,-0.011291504
3169,1.585,0.022277832,-0.004272461
3170,1.5855,0.032043457,-0.001831055
3171,1.586,0.029296875,0.007324219
3172,1.5865,0.026550293,0.00579834
3173,1.587,0.02746582,0.00579834
3174,1.5875,0.036010742,0.003662109
3175,1.588,0.032958984,-0.003356934
3176,1.5885,0.026550293,-0.01373291
3177,1.589,0.028381348,-0.016174316
3178,1.5895,0.026550293,-0.010375977
3179,1.59,0.026550293,-0.001220703
3180,1.5905,0.027770996,0.00793457
3181,1.591,0.021362305,0.025634766
3182,1.5915,0.010375977,0.034179688
3183,1.592,0.002746582,0.03326416
3184,1.5925,-0.004577637,0.03112793
3185,1.593,-0.008850098,0.025024414
3186,1.5935,-0.009460449,0.02532959
3187,1.594,-0.012207031,0.021057129
3188,1.5945,-0.016479492,0.015563965
3189,1.595,-0.023193359,0.003662109
3190,1.5955,-0.031738281,-0.00213623
3191,1.596,-0.032348633,-0.000305176
3192,1.5965,-0.026855469,0.009765625
3193,1.597,-0.030517578,0.021057129
3194,1.5975,-0.034484863,0.016479492
3195,1.598,-0.028076172,0.016174316
3196,1.5985,-0.027160645,0.014953613
3197,1.599,-0.03112793,0.010986328
3198,1.5995,-0.032043457,0.009155273
3199,1.6,-0.02746582,0.003356934
3200,1.6005,-0.025939941,0.005187988
3201,1.601,-0.016784668,0.004882813
3202,1.6015,-0.006408691,0.001831055
3203,1.602,-0.00213623,-0.001831055
3204,1.6025,-0.001831055,0.000610352
3205,1.603,0.000610352,0.000915527
3206,1.6035,0.000915527,-0.000305176
3207,1.604,0.003967285,-0.00213623
3208,1.6045,0.013427734,-0.00579834
3209,1.605,0.027160645,-0.010681152
3210,1.6055,0.035705566,-0.01159668
3211,1.606,0.028076172,-0.020446777
3212,1.6065,0.02166748,-0.022888184
3213,1.607,0.025024414,-0.020446777
3214,1.6075,0.036315918,-0.016784668
3215,1.608,0.032958984,-0.018310547
3216,1.6085,0.02532959,-0.018310547
3217,1.609,0.025634766,-0.014648438
3218,1.6095,0.024414063,-0.005493164
3219,1.61,0.020446777,-0.000305176
3220,1.6105,0.016784668,-0.000915527
3221,1.611,0.009765625,-0.000305176
3222,1.6115,0.005187988,0.000915527
3223,1.612,0.003356934,0.000305176
3224,1.6125,0.001831055,0.002746582
3225,1.613,-0.001525879,0.002441406
3226,1.6135,-0.007019043,-0.000305176
3227,1.614,-0.015258789,-0.003356934
3228,1.6145,-0.019836426,-0.002746582
3229,1.615,-0.024719238,0.001525879
3230,1.6155,-0.028381348,-0.00213623
3231,1.616,-0.025939941,-0.003967285
3232,1.6165,-0.027160645,-0.004272461
3233,1.617,-0.032348633,-0.00793457
3234,1.6175,-0.044250488,-0.014038086
3235,1.618,-0.040588379,-0.018615723
3236,1.6185,-0.033569336,-0.024719238
3237,1.619,-0.034484863,-0.028686523
3238,1.6195,-0.028076172,-0.038146973
3239,1.62,-0.022888184,-0.035705566
3240,1.6205,-0.026245117,-0.037231445
3241,1.621,-0.024414063,-0.034484863
3242,1.6215,-0.010986328,-0.030517578
3243,1.622,-0.004577637,-0.015258789
3244,1.6225,-0.002746582,-0.009155273
3245,1.623,-0.000915527,-0.000915527
3246,1.6235,0.0,0.009155273
3247,1.624,0.006408691,0.016784668
3248,1.6245,0.011291504,0.025634766
3249,1.625,0.015563965,0.026550293
3250,1.6255,0.023498535,0.026550293
3251,1.626,0.01953125,0.023803711
3252,1.6265,0.014648438,0.024108887
3253,1.627,0.020141602,0.022583008
3254,1.6275,0.033569336,0.024108887
3255,1.628,0.031738281,0.022888184
3256,1.6285,0.025939941,0.01739502
3257,1.629,0.024414063,0.01739502
3258,1.6295,0.023803711,0.011901855
3259,1.63,0.018920898,0.01159668
3260,1.6305,0.017089844,0.010070801
3261,1.631,0.012207031,0.01159668
3262,1.6315,0.00579834,0.005187988
3263,1.632,0.000915527,0.001220703
3264,1.6325,-0.003662109,-0.000305176
3265,1.633,-0.00793457,0.000305176
3266,1.6335,-0.010375977,-0.000610352
3267,1.634,-0.01373291,-0.002441406
3268,1.6345,-0.01739502,-0.00793457
3269,1.635,-0.020141602,-0.010986328
3270,1.6355,-0.026245117,-0.020141602
3271,1.636,-0.026550293,-0.029296875
3272,1.6365,-0.025024414,-0.032653809
3273,1.637,-0.030517578,-0.037841797
3274,1.6375,-0.041809082,-0.040588379
3275,1.638,-0.037231445,-0.034484863
3276,1.6385,-0.032958984,-0.020751953
3277,1.639,-0.032653809,-0.014038086
3278,1.6395,-0.03112793,-0.010070801
3279,1.64,-0.027770996,-0.008850098
3280,1.6405,-0.025024414,-0.006103516
3281,1.641,-0.023803711,-0.006713867
3282,1.6415,-0.01739502,-0.007324219
3283,1.642,-0.013427734,-0.003662109
3284,1.6425,-0.007324219,-0.003051758
3285,1.643,-0.001831055,-0.002441406
3286,1.6435,0.001220703,-0.003967285
3287,1.644,0.005493164,-0.008239746
3288,1.6445,0.009460449,-0.007629395
3289,1.645,0.017089844,-0.008239746
3290,1.6455,0.02746582,-0.004882813
3291,1.646,0.027160645,0.002441406
3292,1.6465,0.021972656,0.006713867
3293,1.647,0.020751953,0.01159668
3294,1.6475,0.030212402,0.018920898
3295,1.648,0.028991699,0.02166748
3296,1.6485,0.022583008,0.021362305
3297,1.649,0.022888184,0.020446777
3298,1.6495,0.022888184,0.012207031
3299,1.65,0.01739502,0.005187988
3300,1.6505,0.018615723,0.001220703
3301,1.651,0.015869141,0.001525879
3302,1.6515,0.011901855,0.003967285
3303,1.652,0.006408691,0.007019043
3304,1.6525,0.000610352,0.012207031
3305,1.653,-0.005187988,0.012817383
3306,1.6535,-0.010070801,0.008239746
3307,1.654,-0.014343262,0.003356934
3308,1.6545,-0.019836426,-0.005493164
3309,1.655,-0.025024414,-0.008850098
3310,1.6555,-0.031738281,-0.013122559
3311,1.656,-0.026855469,-0.014648438
3312,1.6565,-0.024719238,-0.016784668
3313,1.657,-0.030212402,-0.018920898
3314,1.6575,-0.042419434,-0.023193359
3315,1.658,-0.035705566,-0.027770996
3316,1.6585,-0.028686523,-0.02532959
3317,1.659,-0.032653809,-0.017089844
3318,1.6595,-0.030822754,-0.012207031
3319,1.66,-0.027160645,-0.006103516
3320,1.6605,-0.028076172,-0.000915527
3321,1.661,-0.025634766,0.003662109
3322,1.6615,-0.014038086,0.00213623
3323,1.662,-0.00793457,0.002746582
3324,1.6625,-0.003051758,-0.001525879
3325,1.663,0.0,-0.00213623
3326,1.6635,0.003967285,-0.000610352
3327,1.664,0.007019043,0.002441406
3328,1.6645,0.014343262,0.003662109
3329,1.665,0.024719238,-0.000305176
3330,1.6655,0.030517578,-0.000305176
3331,1.666,0.020751953,0.000915527
3332,1.6665,0.014343262,-0.006103516
3333,1.667,0.021057129,-0.010070801
3334,1.6675,0.034484863,-0.004577637
3335,1.668,0.028991699,-0.003967285
3336,1.6685,0.021057129,-0.008544922
3337,1.669,0.02166748,-0.009155273
3338,1.6695,0.021057129,-0.003051758
3339,1.67,0.017089844,0.000305176
3340,1.6705,0.014953613,0.00213623
3341,1.671,0.010986328,0.004882813
3342,1.6715,0.006408691,0.005187988
3343,1.672,0.0,-0.000610352
3344,1.6725,-0.002441406,0.001525879
3345,1.673,-0.004272461,0.007019043
3346,1.6735,-0.006713867,0.001831055
3347,1.674,-0.012207031,0.001831055
